dataset	window	paa	alphabet	approximation	rules	gr_size	frequency	cover	coverage	pruned_rules	pruned_gr_size	pruned_frequency	pruned_cover	pruned_coverage
ecg0606	100	2	2	1.1666759056379217	6	186	37	0.9930404523705959	7.499782514136581	2	154	37	0.9930404523705959	2.5432796868203567
ecg0606	100	2	3	0.832905560731883	4	48	6	1.0	2.7285776424532404	3	42	6	1.0	2.012179208351457
ecg0606	100	2	4	0.8342154801241018	7	136	22	0.9930404523705959	6.278381905176164	3	106	22	0.9930404523705959	2.9264897781644192
ecg0606	100	2	5	0.79007056708181	8	176	24	1.0	5.560678555893867	3	136	24	1.0	3.245759025663332
ecg0606	100	2	6	0.7731178362925263	11	240	35	0.9930404523705959	6.687690300130492	3	178	35	0.9930404523705959	2.665071770334928
ecg0606	100	2	7	0.7508957793706431	8	138	22	1.0	6.766855154414963	4	110	22	1.0	2.8590691605045673
ecg0606	100	2	8	0.7446613984679152	17	362	22	0.9930404523705959	7.404958677685951	4	266	22	0.9930404523705959	2.795998260113093
ecg0606	100	2	9	0.7349264284004248	13	304	26	1.0	7.997825141365811	3	232	26	1.0	1.8138321009134406
ecg0606	100	2	10	0.7249113870754174	17	460	29	0.9978251413658112	8.189212701174423	5	362	24	0.9978251413658112	2.8851674641148324
ecg0606	100	2	12	0.7156905812596476	15	386	24	1.0	7.694214876033058	4	300	24	1.0	2.1374510656807306
ecg0606	100	4	2	0.8740554318145131	30	1228	24	1.0	9.07568508046977	4	964	24	1.0	2.083514571552849
ecg0606	100	4	3	0.742459927904592	37	1620	12	1.0	9.491953023053501	8	1292	12	1.0	1.6367986080904742
ecg0606	100	4	4	0.7074668204742935	65	2672	18	1.0	14.430622009569378	9	2104	15	1.0	2.293605915615485
ecg0606	100	4	5	0.6606294653075274	81	3020	13	0.9952153110047847	14.859069160504568	9	2308	13	0.9952153110047847	1.8929969551979122
ecg0606	100	4	6	0.6183864515348375	67	3148	11	1.0	12.08133971291866	9	2508	11	1.0	2.277511961722488
ecg0606	100	4	7	0.6178475706271679	119	4304	14	1.0	19.93562418442801	11	3324	14	1.0	1.5819921705089168
ecg0606	100	4	8	0.6060812115241705	106	4484	14	1.0	17.902131361461507	14	3568	11	1.0	1.8120922140060896
ecg0606	100	4	9	0.594557452224727	118	5148	12	1.0	18.97868638538495	11	4036	12	1.0	1.5028273162244454
ecg0606	100	4	10	0.5923012777987305	138	5412	14	0.9978251413658112	19.892561983471076	10	4196	14	0.9978251413658112	2.0008699434536754
ecg0606	100	4	12	0.5743701131527236	134	5804	11	0.9978251413658112	19.21748586341888	9	4596	9	0.9978251413658112	1.8973466724662897
ecg0606	100	6	2	0.8010550453544861	46	2778	28	1.0	11.722923010004349	6	2248	28	1.0	2.0865593736407133
ecg0606	100	6	3	0.6524399456395751	58	3730	13	0.9978251413658112	13.23836450630709	6	3026	13	0.9978251413658112	1.857764245324054
ecg0606	100	6	4	0.5918332489604381	97	5710	14	1.0	17.44802087864289	15	4622	14	1.0	2.0648107872988257
ecg0606	100	6	5	0.5546854722235139	137	7766	12	1.0	22.196172248803826	15	6318	12	1.0	1.9725967812092213
ecg0606	100	6	6	0.5117813117601069	127	7802	14	0.998260113092649	19.35102218355807	7	6142	14	0.998260113092649	1.6668116572422793
ecg0606	100	6	7	0.49714612719749407	143	8910	10	1.0	20.229665071770334	14	7206	10	1.0	1.735102218355807
ecg0606	100	6	8	0.4917007335618133	163	10196	8	0.9830361026533275	20.640278381905176	10	8128	8	0.9830361026533275	1.5772074815137016
ecg0606	100	6	9	0.4819613949845003	161	10652	12	0.983906046107003	21.760330578512395	10	8664	12	0.983906046107003	1.9417137886037408
ecg0606	100	6	10	0.4772148769583048	172	11464	11	1.0	23.14919530230535	16	9434	11	1.0	1.8194867333623315
ecg0606	100	6	12	0.4677635270900751	166	11912	12	0.982166159199652	20.83732057416268	13	9936	12	0.982166159199652	1.7951283166594172
ecg0606	100	8	2	0.7530119736474378	68	5284	15	0.994780339277947	13.663331883427578	6	4252	15	0.994780339277947	1.6694214876033058
ecg0606	100	8	3	0.6110753113729643	80	6536	10	0.9995650282731623	13.681165724227926	8	5236	9	0.9995650282731623	1.630274032187908
ecg0606	100	8	4	0.5452555804111537	109	9472	14	1.0	19.26533275337103	9	7824	14	1.0	1.789908655937364
ecg0606	100	8	5	0.5095589354260605	174	13240	11	0.998260113092649	25.747281426707264	9	10604	11	0.998260113092649	1.9830361026533276
ecg0606	100	8	6	0.4673678822366971	145	12968	13	0.9960852544584602	20.26924749891257	8	10544	13	0.9960852544584602	2.186167899086559
ecg0606	100	8	7	0.4424209623473371	167	14732	14	0.9899956502827316	24.190952588081775	8	12036	14	0.9899956502827316	2.076989995650283
ecg0606	100	8	8	0.4318464831116796	172	15484	12	0.97868638538495	22.010004349717267	11	12844	12	0.97868638538495	1.731187472814267
ecg0606	100	8	9	0.41306345467855266	175	16316	12	0.9708568943018704	23.946933449325794	11	13652	12	0.9708568943018704	1.9934754240974337
ecg0606	100	8	10	0.40590337761971335	162	16856	9	0.9765115267507612	19.171813832100913	11	14276	9	0.9765115267507612	1.5672031317964332
ecg0606	100	8	12	0.3932383374796759	154	17708	13	0.9560678555893867	18.63418877772945	12	15332	13	0.9560678555893867	1.508916920400174
ecg0606	100	10	2	0.7153504303791061	72	8470	10	0.9986950848194868	13.134841235319705	7	6808	10	0.9986950848194868	1.499782514136581
ecg0606	100	10	3	0.5786651675758021	82	10202	14	1.0	14.434971726837755	9	8492	14	1.0	1.76163549369291
ecg0606	100	10	4	0.5076394197497451	155	15348	13	0.9917355371900827	24.563723357981733	9	12604	13	0.9917355371900827	2.1518051326663765
ecg0606	100	10	5	0.4735702054764682	179	18522	14	0.9960852544584602	25.20095693779904	10	15368	14	0.9960852544584602	1.8386254893431926
ecg0606	100	10	6	0.4335478075325373	183	20150	11	0.9882557633753806	24.122662026968246	10	16686	11	0.9882557633753806	1.8377555458895172
ecg0606	100	10	7	0.4087071365826846	169	21280	13	0.980426272292301	24.423227490213137	11	18020	13	0.980426272292301	1.877337973031753
ecg0606	100	10	8	0.39850294808000164	162	21930	8	0.9795563288386255	20.656372335798174	13	18940	8	0.9795563288386255	1.597651152675076
ecg0606	100	10	9	0.37678976169141376	194	23620	9	0.9695519791213572	23.37973031752936	11	19794	9	0.9695519791213572	1.8125271857329273
ecg0606	100	10	10	0.3665544174506601	176	23800	9	0.976946498477599	19.215311004784688	12	20324	9	0.976946498477599	1.5524140930839496
ecg0606	100	10	12	0.35389454456832775	142	23550	7	0.9486733362331449	14.847324923879947	14	20960	7	0.9486733362331449	1.7185732927359723
ecg0606	100	12	2	0.6879028150157283	118	12132	11	1.0	19.337538060026098	12	9824	11	1.0	1.7024793388429753
ecg0606	100	12	3	0.5531508942317889	92	14072	10	0.9995650282731623	14.487603305785123	9	11780	10	0.9995650282731623	1.7729447585906917
ecg0606	100	12	4	0.48108789811825314	153	20200	14	0.9960852544584602	21.695084819486734	10	16792	14	0.9960852544584602	2.3740756850804696
ecg0606	100	12	5	0.4449213591942439	191	24312	13	0.9808612440191388	24.976076555023923	11	20020	13	0.9808612440191388	2.0508916920400173
ecg0606	100	12	6	0.4073188274454491	196	26860	10	0.9547629404088734	24.56807307525011	11	22512	10	0.9547629404088734	1.7712048716833406
ecg0606	100	12	7	0.38201658535118577	180	26856	9	0.9791213571117877	22.27316224445411	10	22916	9	0.9791213571117877	1.772074815137016
ecg0606	100	12	8	0.37285891552659856	161	28056	9	0.9625924314919531	17.792953458025227	11	24504	9	0.9625924314919531	1.7638103523270987
ecg0606	100	12	9	0.3502676310000451	151	28352	13	0.9495432796868204	17.750326228795128	11	24820	13	0.9495432796868204	1.7216180948238364
ecg0606	100	12	10	0.33989025454266086	134	28428	7	0.9282296650717703	14.179643323183994	14	25396	4	0.9282296650717703	1.4980426272292302
ecg0606	100	12	12	0.32628212101720006	82	27400	6	0.9156154849934754	8.023053501522401	14	25740	6	0.9156154849934754	1.4523705959112658
ecg0606	100	14	2	0.6660550836947579	104	13452	14	0.9973901696389734	16.862983906046107	9	11004	14	0.9973901696389734	2.1226620269682472
ecg0606	100	14	3	0.5334954671571374	121	18330	13	0.9939103958242714	18.91648542844715	8	15058	9	0.9939103958242714	1.8986515876468029
ecg0606	100	14	4	0.45928603213049046	181	25462	10	0.976946498477599	22.339712918660286	11	20970	10	0.976946498477599	1.8721183123096998
ecg0606	100	14	5	0.4229369530843536	180	30216	8	0.9756415832970857	22.94954327968682	12	25820	8	0.9756415832970857	1.5972161809482384
ecg0606	100	14	6	0.385738555510178	155	29510	8	0.9908655937364071	18.43584167029143	10	25356	8	0.9908655937364071	1.4149630274032188
ecg0606	100	14	7	0.36128180113020947	162	32374	7	0.9451935624184428	17.86037407568508	14	27996	7	0.9451935624184428	1.4593301435406698
ecg0606	100	14	8	0.3513734913832403	118	31126	10	0.943018703784254	12.620269682470639	12	28192	10	0.943018703784254	1.7712048716833406
ecg0606	100	14	9	0.33025655765055817	138	32254	8	0.925184862983906	14.421052631578947	14	28640	5	0.925184862983906	1.5045672031317965
ecg0606	100	14	10	0.31788953440205026	105	31944	6	0.9499782514136581	11.13005654632449	15	29478	4	0.9499782514136581	1.5441496302740323
ecg0606	100	14	12	0.3043272837370121	63	31624	3	0.8929969551979121	5.591561548499348	16	30126	3	0.8929969551979121	1.3623314484558504
ecg0606	100	16	2	0.6484643005318694	130	20548	12	1.0	20.609395389299696	14	16976	12	1.0	2.117442366246194
ecg0606	100	16	3	0.5170256555601517	154	24024	11	0.9960852544584602	21.886472379295345	12	19652	11	0.9960852544584602	2.2092214006089606
ecg0606	100	16	4	0.44191324466316606	187	31580	8	0.9830361026533275	21.85123966942149	12	25980	8	0.9830361026533275	1.9725967812092213
ecg0606	100	16	5	0.40588269266502985	169	35324	11	0.9647672901261418	19.7016093953893	14	30224	11	0.9647672901261418	1.944758590691605
ecg0606	100	16	6	0.36828974146707266	147	35200	7	0.9321444106133101	16.099608525445845	14	30740	5	0.9321444106133101	1.6385384949978252
ecg0606	100	16	7	0.3443938566925563	131	35832	10	0.9347542409743367	15.061765985210961	10	31912	10	0.9347542409743367	1.6798608090474119
ecg0606	100	16	8	0.33482120091854417	83	35048	5	0.9295345802522836	8.134406263592867	16	32684	5	0.9295345802522836	1.7211831230969987
ecg0606	100	16	9	0.3128444986137263	107	36044	6	0.9186602870813397	11.09699869508482	14	32904	6	0.9186602870813397	1.5019573727707698
ecg0606	100	16	10	0.3005575598821665	74	35912	4	0.8842975206611571	6.96520226185298	17	33952	3	0.8842975206611571	1.5841670291431056
ecg0606	100	16	12	0.28701311390536094	48	35076	6	0.8668986515876468	4.494562853414528	19	34104	3	0.8668986515876468	1.674206176598521
ecg0606	100	18	2	0.6348004634971092	155	26188	13	0.9943453675511091	24.84297520661157	7	21388	13	0.9943453675511091	1.6289691170073946
ecg0606	100	18	3	0.5038532512067198	139	29160	11	0.9956502827316225	18.414963027403218	9	24100	11	0.9956502827316225	1.7551109177903437
ecg0606	100	18	4	0.42790271383111383	186	38356	9	0.9421487603305785	21.61374510656807	14	32328	9	0.9421487603305785	1.6006959547629405
ecg0606	100	18	5	0.3918000883036113	154	39860	7	0.9364941278816877	16.18790778599391	13	34934	7	0.9364941278816877	1.5458895171813831
ecg0606	100	18	6	0.3551711224440153	149	41608	5	0.9495432796868204	15.461505002174858	15	36556	5	0.9495432796868204	1.677685950413223
ecg0606	100	18	7	0.33092560025376333	122	41266	11	0.9347542409743367	13.057416267942584	11	36996	11	0.9347542409743367	1.3727707698999565
ecg0606	100	18	8	0.32201282728671093	76	40028	6	0.9186602870813397	7.368421052631579	16	37800	6	0.9186602870813397	1.590691605045672
ecg0606	100	18	9	0.2995641488201024	87	40686	8	0.9286646367986081	8.916485428447151	15	38066	8	0.9286646367986081	1.5406698564593302
ecg0606	100	18	10	0.2867891127389246	52	39814	4	0.8842975206611571	4.98260113092649	17	38480	4	0.8842975206611571	1.5424097433666812
ecg0606	100	18	12	0.27299310378169467	29	39298	4	0.7168334058286211	2.7764245324053936	17	38826	4	0.7168334058286211	1.6307090039147456
ecg0606	100	20	2	0.6213760195319258	149	30236	9	0.9843410178338408	20.78251413658112	11	24540	7	0.9843410178338408	1.8081774684645497
ecg0606	100	20	3	0.49211395662718027	132	36340	14	0.9895606785558939	18.06002609830361	11	30944	14	0.9895606785558939	1.7333623314484559
ecg0606	100	20	4	0.4139078241707321	170	43928	7	0.9625924314919531	18.88777729447586	14	37520	5	0.9625924314919531	1.3436276642018268
ecg0606	100	20	5	0.37751586457424124	154	46484	6	0.9325793823401479	16.903871248368855	14	40820	6	0.9325793823401479	1.7237929534580252
ecg0606	100	20	6	0.3421698809113663	121	46592	6	0.9177903436276642	12.496737712048716	14	42052	6	0.9177903436276642	1.5859069160504566
ecg0606	100	20	7	0.31896431011665816	118	46788	4	0.9264897781644194	11.830795998260113	17	42448	4	0.9264897781644194	1.5859069160504566
ecg0606	100	20	8	0.30924206375417707	46	43784	6	0.8299260548064376	4.410613310134841	19	42704	6	0.8299260548064376	1.7655502392344498
ecg0606	100	20	9	0.2873752584970076	56	44712	5	0.8429752066115702	5.506307090039147	16	43052	4	0.8429752066115702	1.453675511091779
ecg0606	100	20	10	0.2734135852193912	44	44660	4	0.7625054371465855	4.096563723357982	13	43348	4	0.7625054371465855	1.1887777294475859
ecg0606	100	20	12	0.25905544084871224	27	43864	4	0.6663766855154415	2.3775554588951717	16	43420	2	0.6663766855154415	1.3214441061331013
ecg0606	100	22	2	0.6130257287578235	148	32888	10	0.9886907351022184	19.71291866028708	11	26838	8	0.9886907351022184	1.799043062200957
ecg0606	100	22	3	0.48381766145820804	152	41890	14	0.9599826011309265	22.02566333188343	7	35534	14	0.9599826011309265	1.6415832970856894
ecg0606	100	22	4	0.40627272523176744	159	48740	9	0.9773814702044367	18.322749021313616	12	42296	9	0.9773814702044367	1.900391474554154
ecg0606	100	22	5	0.36962288043074876	129	50670	8	0.9299695519791213	14.638538494997825	12	45330	8	0.9299695519791213	1.6724662896911702
ecg0606	100	22	6	0.33366809190722946	96	50594	5	0.9056111352762071	9.220095693779903	16	46656	5	0.9056111352762071	1.6285341452805568
ecg0606	100	22	7	0.3102577337982875	92	50862	4	0.921705089169204	8.866898651587647	17	47188	3	0.921705089169204	1.626359286646368
ecg0606	100	22	8	0.3013047155801841	33	48130	4	0.8325358851674641	3.1705089169204004	15	47326	4	0.8325358851674641	1.4958677685950412
ecg0606	100	22	9	0.27905799918348495	45	48944	4	0.8525445846020009	4.2270552414093086	15	47626	4	0.8525445846020009	1.4075685080469769
ecg0606	100	22	10	0.26550588164834577	44	48546	4	0.8168769030013049	4.492822966507177	17	47444	4	0.8168769030013049	1.5867768595041323
ecg0606	100	22	12	0.2516455791439461	14	48168	3	0.5493692909960852	1.1861678990865594	10	47992	3	0.5493692909960852	0.8347107438016529
ecg0606	100	24	2	0.6043129405592328	164	40140	12	0.9926054806437582	21.056981296215746	13	32592	12	0.9926054806437582	2.277946933449326
ecg0606	100	24	3	0.47552685738041617	131	42096	13	0.9565028273162245	17.86820356676816	9	36568	13	0.9565028273162245	2.0226185297955634
ecg0606	100	24	4	0.39776268517723634	150	53192	5	0.9782514136581122	15.277511961722489	13	46264	5	0.9782514136581122	1.5028273162244454
ecg0606	100	24	5	0.36094663161628715	114	55172	6	0.9238799478033928	11.113962592431491	15	50224	5	0.9238799478033928	1.5450195737277077
ecg0606	100	24	6	0.3250039924555517	94	55188	5	0.9043062200956937	9.301435406698564	15	51256	5	0.9043062200956937	1.4989125706829056
ecg0606	100	24	7	0.3015000200005471	76	54624	4	0.9060461070030448	7.3175293605915614	17	51540	4	0.9060461070030448	1.6702914310569812
ecg0606	100	24	8	0.29296821945149526	37	52988	3	0.8286211396259243	3.252718573292736	18	52028	3	0.8286211396259243	1.5376250543714658
ecg0606	100	24	9	0.2706738509942866	34	53420	3	0.6668116572422792	3.0347977381470206	12	52292	3	0.6668116572422792	1.0113092648977817
ecg0606	100	24	10	0.2570631465022153	18	52316	3	0.6402783819051762	1.5384949978251414	15	52172	3	0.6402783819051762	1.2749021313614615
ecg0606	100	24	12	0.2427773534212539	7	52624	2	0.29143105698129623	0.5280556763810352	6	52576	2	0.29143105698129623	0.44019138755980863
ecg0606	100	26	2	0.5970958630156926	180	47814	14	0.9956502827316225	24.723357981731187	11	39304	14	0.9956502827316225	1.6098303610265332
ecg0606	100	26	3	0.4689610908201149	139	49194	11	0.9560678555893867	17.366681165724227	10	42480	9	0.9560678555893867	1.6676816006959547
ecg0606	100	26	4	0.3904870476315765	127	59020	5	0.9130056546324489	12.74597651152675	14	52492	5	0.9130056546324489	1.4184428012179209
ecg0606	100	26	5	0.3536550968636504	87	58598	7	0.919965202261853	9.082644628099173	15	54792	6	0.919965202261853	1.5437146585471944
ecg0606	100	26	6	0.31797251218917344	86	59308	5	0.916485428447151	8.057416267942584	15	55580	5	0.916485428447151	1.5819921705089168
ecg0606	100	26	7	0.294672911492208	67	58542	4	0.9069160504567203	6.562853414528056	16	55906	4	0.9069160504567203	1.4963027403218792
ecg0606	100	26	8	0.2860834570849845	18	56750	3	0.6180948238364506	1.541104828186168	13	56438	2	0.6180948238364506	1.0561113527620705
ecg0606	100	26	9	0.26389962636545744	30	57312	3	0.7551109177903437	2.5928664636798606	15	56532	2	0.7551109177903437	1.2309699869508481
ecg0606	100	26	10	0.24984272869620555	18	56732	3	0.5197912135711179	1.5402348847324925	14	56524	3	0.5197912135711179	1.1887777294475859
ecg0606	100	26	12	0.23554291144360606	6	56954	2	0.2535885167464115	0.44019138755980863	6	56954	2	0.2535885167464115	0.44019138755980863
ecg0606	100	28	2	0.5909793521557051	184	53936	11	0.9856459330143541	22.59547629404089	13	44252	11	0.9856459330143541	1.8194867333623315
ecg0606	100	28	3	0.462940937546388	149	56552	11	0.9569377990430622	19.252718573292736	9	48368	11	0.9569377990430622	1.7163984341017833
ecg0606	100	28	4	0.3845476414176914	119	63324	6	0.9373640713353631	11.79643323183993	13	57144	6	0.9373640713353631	1.4993475424097433
ecg0606	100	28	5	0.3471820830844319	94	64188	5	0.9056111352762071	9.168334058286211	15	59580	4	0.9056111352762071	1.3636363636363635
ecg0606	100	28	6	0.3118232408242234	69	62904	5	0.9230100043497173	6.7364071335363205	15	59956	5	0.9230100043497173	1.6267942583732058
ecg0606	100	28	7	0.2886661005999349	49	61956	4	0.8560243584167029	4.4506307090039146	18	60044	4	0.8560243584167029	1.6733362331448456
ecg0606	100	28	8	0.28017781459372826	15	61104	3	0.5110917790343628	1.2766420182688125	12	60880	3	0.5110917790343628	1.0113092648977817
ecg0606	100	28	9	0.25796259469099847	21	61348	3	0.6628969117007395	1.850369725967812	14	60816	3	0.6628969117007395	1.2309699869508481
ecg0606	100	28	10	0.24388187997435318	16	61164	2	0.6354936929099608	1.3188342757720748	13	60996	2	0.6354936929099608	1.055241409308395
ecg0606	100	28	12	0.22942150980216597	8	61552	3	0.23053501522401043	0.7037842540234884	4	61352	3	0.23053501522401043	0.3514571552849065
ecg0606	100	30	2	0.5851745657775898	178	56380	10	0.9869508481948673	21.051326663766854	11	46762	9	0.9869508481948673	1.878642888212266
ecg0606	100	30	3	0.45751050017034234	136	63906	13	0.9717268377555459	18.02131361461505	9	56110	13	0.9717268377555459	1.7603305785123966
ecg0606	100	30	4	0.37871237104256167	105	67032	6	0.916485428447151	10.427142235754676	15	61340	6	0.916485428447151	1.5441496302740323
ecg0606	100	30	5	0.3412858623096238	84	68238	5	0.9256198347107438	8.194867333623314	15	63886	5	0.9256198347107438	1.4980426272292302
ecg0606	100	30	6	0.3061277669957357	45	66418	5	0.8638538494997825	4.404523705959113	14	64486	5	0.8638538494997825	1.5419747716398433
ecg0606	100	30	7	0.2830256447239752	48	66568	3	0.8312309699869509	4.310134841235319	17	64700	3	0.8312309699869509	1.5389299695519791
ecg0606	100	30	8	0.27461840438337753	10	65674	3	0.4580252283601566	0.8360156589821661	9	65584	2	0.4580252283601566	0.702914310569813
ecg0606	100	30	9	0.2523420940407862	13	65312	3	0.5067420617659852	1.1000434971726838	12	65252	3	0.5067420617659852	1.0121792083514571
ecg0606	100	30	10	0.23816330166489058	6	65852	2	0.29404088734232275	0.4393214441061331	5	65792	2	0.29404088734232275	0.3514571552849065
ecg0606	100	30	12	0.22364742969244328	3	65896	2	0.12005219660722052	0.17572857764245325	3	65896	2	0.12005219660722052	0.17572857764245325
ecg0606	120	2	2	1.1899824737249824	8	160	26	0.996520226185298	6.595476294040887	3	122	26	0.996520226185298	3.071335363201392
ecg0606	120	2	3	0.7452222956654474	1	10	-2147483648	0.0	0.0	1	10	-2147483648	0.0	0.0
ecg0606	120	2	4	0.8373755249438846	8	160	26	0.996520226185298	6.595476294040887	3	122	26	0.996520226185298	3.071335363201392
ecg0606	120	2	5	0.7369782736534483	7	140	17	1.0	4.640713353632014	3	104	17	1.0	2.190517616354937
ecg0606	120	2	6	0.7444678507843228	8	166	23	0.996520226185298	6.240104393214441	3	130	15	0.996520226185298	2.2583732057416266
ecg0606	120	2	7	0.7192118102960617	11	190	17	0.9826011309264898	5.72857764245324	4	140	17	0.9826011309264898	2.951718138321009
ecg0606	120	2	8	0.709135681811317	11	248	35	1.0	6.846454980426272	2	186	35	1.0	2.5915615484993477
ecg0606	120	2	9	0.7020338778858305	14	304	25	1.0	7.92822966507177	3	228	21	1.0	1.918225315354502
ecg0606	120	2	10	0.6920612409275004	11	324	37	0.996520226185298	7.184428012179208	3	260	37	0.996520226185298	3.1270117442366248
ecg0606	120	2	12	0.6804656139188312	14	296	37	0.996520226185298	8.32753371030883	3	216	37	0.996520226185298	3.7707698999565027
ecg0606	120	4	2	0.9326626362258255	35	1176	13	1.0	9.107872988255764	7	896	13	1.0	2.0065245759025663
ecg0606	120	4	3	0.7524700933197779	25	992	23	1.0	9.415397999130057	6	796	23	1.0	2.298825576337538
ecg0606	120	4	4	0.7196862566210112	61	2196	13	1.0	13.0852544584602	10	1716	13	1.0	1.93605915615485
ecg0606	120	4	5	0.6740118263359961	51	2048	21	1.0	12.448020878642888	7	1588	21	1.0	2.1039582427142234
ecg0606	120	4	6	0.6377680215919053	60	2416	14	1.0	14.265767725097868	8	1860	14	1.0	2.111787733797303
ecg0606	120	4	7	0.6394770701238313	87	3448	17	1.0	18.223140495867767	10	2680	17	1.0	2.0078294910830796
ecg0606	120	4	8	0.6192617662608728	85	3484	12	0.9995650282731623	17.406698564593302	7	2732	12	0.9995650282731623	2.0861244019138754
ecg0606	120	4	9	0.6162678230303056	99	4080	11	0.9969551979121357	18.232709873858198	8	3192	9	0.9969551979121357	1.914310569812962
ecg0606	120	4	10	0.6041413787816325	104	4212	11	1.0	18.809047411918225	11	3296	10	1.0	1.7799043062200957
ecg0606	120	4	12	0.5930079749085058	126	4996	14	0.9995650282731623	22.572422792518488	8	3848	14	0.9995650282731623	2.159634623749456
ecg0606	120	6	2	0.8386740189731634	42	2902	13	1.0	12.496737712048716	7	2410	13	1.0	1.8229665071770336
ecg0606	120	6	3	0.658028253486113	47	3088	11	1.0	12.880817746846455	9	2514	11	1.0	1.9769464984775988
ecg0606	120	6	4	0.6020856991350401	72	5100	12	1.0	15.85645933014354	10	4196	11	1.0	1.887777294475859
ecg0606	120	6	5	0.5840492543107957	127	7088	12	0.9991300565463245	24.050021748586342	8	5530	9	0.9991300565463245	2.047411918225315
ecg0606	120	6	6	0.5464313100935951	118	6902	13	0.9995650282731623	23.289256198347108	7	5464	13	0.9995650282731623	2.3083949543279685
ecg0606	120	6	7	0.5341111565198038	146	8310	13	0.9991300565463245	26.408003479773814	6	6582	13	0.9991300565463245	2.0252283601565897
ecg0606	120	6	8	0.5285614013781539	142	9144	12	1.0	23.134406263592865	13	7444	12	1.0	1.886037407568508
ecg0606	120	6	9	0.5144091388050621	169	10028	14	1.0	28.68769030013049	13	8128	14	1.0	1.9299695519791213
ecg0606	120	6	10	0.5095476186477842	167	10864	11	1.0	25.245759025663332	13	8924	11	1.0	1.7581557198782078
ecg0606	120	6	12	0.4929268466183487	157	10974	11	0.9956502827316225	24.336233144845586	9	9090	10	0.9956502827316225	2.120922140060896
ecg0606	120	8	2	0.7900367940472428	70	4928	13	1.0	15.23444976076555	11	3988	13	1.0	1.9282296650717703
ecg0606	120	8	3	0.6280758737151946	66	5920	10	0.9956502827316225	12.975206611570249	9	4796	10	0.9956502827316225	2.250978686385385
ecg0606	120	8	4	0.5585097670821084	124	9188	14	0.998260113092649	25.508481948673335	8	7420	14	0.998260113092649	1.9682470639408438
ecg0606	120	8	5	0.5312063433110594	138	11248	12	0.9995650282731623	23.45759025663332	9	9048	12	0.9995650282731623	2.2905611135276205
ecg0606	120	8	6	0.49042953817029533	147	12112	11	0.9973901696389734	24.212266202696824	10	9784	8	0.9973901696389734	2.059156154849935
ecg0606	120	8	7	0.46474951304023254	165	13856	11	0.9973901696389734	28.231404958677686	8	11268	11	0.9973901696389734	1.929099608525446
ecg0606	120	8	8	0.4559166193903439	157	14480	9	0.9899956502827316	24.000434971726836	9	11980	9	0.9899956502827316	1.9204001739886907
ecg0606	120	8	9	0.44100879022409406	135	14248	12	0.9943453675511091	21.04654197477164	8	12108	12	0.9943453675511091	2.2796868203566767
ecg0606	120	8	10	0.4318407700846266	152	15916	12	0.9747716398434102	21.262287951283167	10	13468	12	0.9747716398434102	1.913005654632449
ecg0606	120	8	12	0.420347426395419	133	16512	7	0.9795563288386255	16.449760765550238	13	14348	7	0.9795563288386255	1.8073075250108743
ecg0606	120	10	2	0.7527911543969275	93	7972	15	1.0	18.858199217050892	10	6488	15	1.0	1.886037407568508
ecg0606	120	10	3	0.6002574932665982	100	9718	11	0.9986950848194868	22.051761635493694	7	7894	10	0.9986950848194868	2.010874293170944
ecg0606	120	10	4	0.526174461664981	143	13544	14	1.0	25.314919530230537	12	11042	14	1.0	1.886037407568508
ecg0606	120	10	5	0.4965571885924992	174	17468	10	0.9995650282731623	28.47672901261418	11	14338	8	0.9995650282731623	1.8229665071770336
ecg0606	120	10	6	0.4594437132883843	173	19050	10	1.0	25.90126141800783	13	15584	10	1.0	1.7003044802087863
ecg0606	120	10	7	0.4342086917124796	170	20258	9	1.0	25.58721183123097	14	16876	9	1.0	1.7555458895171814
ecg0606	120	10	8	0.42349927134720455	167	20768	6	0.9891257068290561	21.755545889517183	13	17646	6	0.9891257068290561	1.7520661157024793
ecg0606	120	10	9	0.40588281153310984	163	21522	10	0.9765115267507612	22.929099608525444	9	18414	10	0.9765115267507612	1.6555023923444976
ecg0606	120	10	10	0.3952150421615656	141	21600	9	0.9782514136581122	19.448890822096562	11	18824	9	0.9782514136581122	1.9151805132666377
ecg0606	120	10	12	0.38180187072006877	116	22212	8	0.9565028273162245	14.401913875598087	15	20022	8	0.9565028273162245	2.062200956937799
ecg0606	120	12	2	0.7225561907817942	98	11440	10	1.0	17.278816876903	14	9232	10	1.0	2.0430622009569377
ecg0606	120	12	3	0.5768879293878523	106	13088	10	1.0	20.303175293605914	14	10832	10	1.0	2.024793388429752
ecg0606	120	12	4	0.4984201367200103	159	19332	10	0.9995650282731623	27.07916485428447	10	15864	10	0.9995650282731623	2.0365376250543714
ecg0606	120	12	5	0.4692635673963869	180	23264	11	1.0	26.319704219225752	13	19188	11	1.0	1.861244019138756
ecg0606	120	12	6	0.4331595203247405	187	26092	10	0.9995650282731623	26.814702044367117	13	21708	10	0.9995650282731623	2.017833840800348
ecg0606	120	12	7	0.40843534247337365	175	26852	9	0.9930404523705959	25.770769899956502	13	22944	9	0.9930404523705959	2.0200086994345368
ecg0606	120	12	8	0.398069685980716	143	26776	9	0.9560678555893867	19.655937364071335	10	23592	9	0.9560678555893867	1.7481513701609395
ecg0606	120	12	9	0.3809006218104002	148	27824	8	0.9721618094823836	18.846454980426273	13	24360	8	0.9721618094823836	1.852109612875163
ecg0606	120	12	10	0.36792290986274956	111	26976	7	0.9747716398434102	14.066115702479339	13	24580	7	0.9747716398434102	1.7951283166594172
ecg0606	120	12	12	0.35298897243627425	99	27540	5	0.9612875163114397	11.57155284906481	14	25400	5	0.9612875163114397	1.5328403653762506
ecg0606	120	14	2	0.6996406949135348	126	15194	13	0.9995650282731623	22.026098303610265	9	12180	13	0.9995650282731623	2.2461939973901695
ecg0606	120	14	3	0.5571387723574195	124	18046	13	1.0	20.836015658982166	9	14734	9	1.0	1.8812527185732928
ecg0606	120	14	4	0.47753594956234546	179	25278	11	0.9921705089169204	27.609395389299696	7	20498	11	0.9921705089169204	2.083514571552849
ecg0606	120	14	5	0.4471187187586707	174	29330	9	0.9956502827316225	25.60287081339713	11	24768	8	0.9956502827316225	1.9656372335798173
ecg0606	120	14	6	0.4116894888216099	152	30122	14	0.983906046107003	22.293605915615483	9	25994	14	0.983906046107003	1.8025228360156589
ecg0606	120	14	7	0.387036342276521	161	31846	6	0.9665071770334929	21.650717703349283	12	27298	5	0.9665071770334929	1.850369725967812
ecg0606	120	14	8	0.37798678512485606	112	32110	5	0.983906046107003	13.32187907785994	13	29096	5	0.983906046107003	1.5306655067420618
ecg0606	120	14	9	0.3600192883401384	122	32226	7	0.9464984775989561	15.915180513266638	14	29210	7	0.9464984775989561	1.7407568508046978
ecg0606	120	14	10	0.3478711677618281	96	32118	6	0.9286646367986081	11.081774684645499	13	29720	6	0.9286646367986081	1.6337538060026098
ecg0606	120	14	12	0.3320054050037883	53	31214	4	0.8982166159199652	5.806437581557199	14	29908	4	0.8982166159199652	1.5806872553284037
ecg0606	120	16	2	0.6810637512220811	126	19128	14	0.9995650282731623	21.551544149630274	9	15528	14	0.9995650282731623	1.9534580252283602
ecg0606	120	16	3	0.5414309139819795	131	23656	13	0.983906046107003	25.62766420182688	6	19512	13	0.983906046107003	2.1587646802957807
ecg0606	120	16	4	0.45995746963032846	168	30052	11	0.9934754240974336	25.4688995215311	10	25008	9	0.9934754240974336	1.8660287081339713
ecg0606	120	16	5	0.42821982151260063	144	32268	7	0.9917355371900827	19.63984341017834	11	27932	7	0.9917355371900827	1.857764245324054
ecg0606	120	16	6	0.3939523133569036	151	34240	9	0.9625924314919531	20.382340147890385	13	29744	7	0.9625924314919531	2.0204436711613747
ecg0606	120	16	7	0.3688575088532373	127	35572	6	0.9538929969551979	16.138321009134405	13	31912	6	0.9538929969551979	1.7968682035667682
ecg0606	120	16	8	0.3606725666821679	72	34432	4	0.9282296650717703	8.40495867768595	13	32536	4	0.9282296650717703	1.5846020008699435
ecg0606	120	16	9	0.342880300540526	92	36112	6	0.9325793823401479	11.314049586776859	12	33372	4	0.9325793823401479	1.428882122662027
ecg0606	120	16	10	0.330336257859592	61	34816	4	0.862983906046107	6.919095258808177	16	33372	4	0.862983906046107	1.8460200086994345
ecg0606	120	16	12	0.3142432534373592	34	34932	3	0.8573292735972162	3.5371900826446283	15	34180	3	0.8573292735972162	1.5293605915615485
ecg0606	120	18	2	0.6646882286149303	144	24156	11	0.9899956502827316	24.078294910830795	9	19610	11	0.9899956502827316	2.0021748586341888
ecg0606	120	18	3	0.5268536222347323	129	26978	11	0.9986950848194868	23.65680730752501	8	22852	11	0.9986950848194868	1.717268377555459
ecg0606	120	18	4	0.44432233015169503	158	33602	7	0.9882557633753806	21.61244019138756	12	28338	7	0.9882557633753806	2.1770334928229667
ecg0606	120	18	5	0.4123879828454333	152	39054	6	0.9638973466724663	19.388864723792953	11	33974	6	0.9638973466724663	1.5363201391909527
ecg0606	120	18	6	0.3779857460108773	118	38072	8	0.9438886472379295	14.867333623314485	13	34020	8	0.9438886472379295	1.9073510221835581
ecg0606	120	18	7	0.3535696542618655	109	39392	8	0.9286646367986081	14.570247933884298	15	35776	5	0.9286646367986081	1.7994780339277947
ecg0606	120	18	8	0.34562489046863604	55	38710	3	0.8912570682905611	5.912570682905611	15	37182	2	0.8912570682905611	1.4754240974336668
ecg0606	120	18	9	0.32772275926000455	70	39632	5	0.9082209656372335	8.080034797738147	14	37438	5	0.9082209656372335	1.6385384949978252
ecg0606	120	18	10	0.3148346349389196	46	39126	4	0.8116572422792518	5.276642018268813	14	37944	3	0.8116572422792518	1.4249673771204872
ecg0606	120	18	12	0.2986574904894733	29	38740	3	0.8281861678990866	3.163549369290996	14	38164	3	0.8281861678990866	1.4758590691605045
ecg0606	120	20	2	0.6507060214523109	144	29832	12	1.0	24.47672901261418	12	24708	12	1.0	1.822096563723358
ecg0606	120	20	3	0.5139386967218644	120	30184	14	0.9995650282731623	20.662896911700738	8	25848	12	0.9995650282731623	2.4688995215311005
ecg0606	120	20	4	0.43070833833982836	143	39304	9	0.9834710743801653	19.055676381035234	11	33624	9	0.9834710743801653	1.8534145280556764
ecg0606	120	20	5	0.39885288772081184	128	43076	7	0.9647672901261418	15.836450630709004	11	38104	7	0.9647672901261418	1.9030013049151806
ecg0606	120	20	6	0.3646009303533211	107	43420	5	0.9460635058721183	13.034362766420182	13	39448	5	0.9460635058721183	1.6398434101783383
ecg0606	120	20	7	0.3398815091441753	100	45068	4	0.9521531100478469	11.142670726402784	15	41444	3	0.9521531100478469	1.6354936929099608
ecg0606	120	20	8	0.33155382833980895	51	43136	3	0.8890822096563723	5.381905176163549	15	41556	3	0.8890822096563723	1.531970421922575
ecg0606	120	20	9	0.3142731546273133	46	42648	3	0.9269247498912571	4.859939103958243	18	41444	3	0.9269247498912571	1.848629839060461
ecg0606	120	20	10	0.3014437120609223	34	43320	4	0.7833840800347978	3.695519791213571	14	42412	4	0.7833840800347978	1.4758590691605045
ecg0606	120	20	12	0.2848825976431214	25	43516	3	0.7142235754675946	2.5841670291431056	12	42992	3	0.7142235754675946	1.2140060896041758
ecg0606	120	22	2	0.6399558599889704	157	34856	10	0.9917355371900827	24.00565463244889	10	28440	10	0.9917355371900827	1.921705089169204
ecg0606	120	22	3	0.5047426990469761	148	39860	10	0.9956502827316225	24.919530230535017	9	33456	10	0.9956502827316225	2.297085689430187
ecg0606	120	22	4	0.420903057263494	170	47332	7	0.966072205306655	22.29230100043497	15	40664	4	0.966072205306655	1.800782949108308
ecg0606	120	22	5	0.3876205304889053	102	47400	8	0.9478033927794693	12.184862983906045	12	43134	8	0.9478033927794693	1.6381035232709873
ecg0606	120	22	6	0.3537047042956064	110	50546	5	0.9369290996085254	12.889082209656372	13	46082	5	0.9369290996085254	1.6324488908220967
ecg0606	120	22	7	0.3299741016192533	84	49426	6	0.921705089169204	10.243149195302305	13	46254	4	0.921705089169204	1.5815571987820791
ecg0606	120	22	8	0.32244262597719275	28	47574	3	0.7751196172248804	2.9565028273162244	15	46848	3	0.7751196172248804	1.5815571987820791
ecg0606	120	22	9	0.3052037239803741	41	48004	4	0.8790778599391039	4.53284036537625	16	46874	3	0.8790778599391039	1.633318834275772
ecg0606	120	22	10	0.2918254786946094	23	47536	3	0.7968682035667681	2.423662461939974	13	47096	3	0.7968682035667681	1.3710308829926054
ecg0606	120	22	12	0.27500164900554547	14	47812	2	0.5933014354066986	1.37016093953893	10	47592	2	0.5933014354066986	0.9473684210526315
ecg0606	120	24	2	0.6292370267843324	147	38952	10	0.9778164419312745	23.328403653762507	11	32092	10	0.9778164419312745	2.0256633318834276
ecg0606	120	24	3	0.49598342079488655	157	46160	13	0.9834710743801653	25.963027403218792	8	39336	13	0.9834710743801653	1.9151805132666377
ecg0606	120	24	4	0.4103816549642192	158	53532	6	0.9617224880382775	19.494997825141365	12	46020	6	0.9617224880382775	1.6911700739451936
ecg0606	120	24	5	0.3765366428270748	107	54576	4	0.9665071770334929	12.409743366681166	15	49972	4	0.9665071770334929	1.6359286646367985
ecg0606	120	24	6	0.3427151220401909	94	55056	6	0.925184862983906	11.307090039147456	14	50640	6	0.925184862983906	1.896476729012614
ecg0606	120	24	7	0.32025490630442044	71	54552	5	0.9143105698129621	8.237929534580251	15	51480	3	0.9143105698129621	1.5824271422357548
ecg0606	120	24	8	0.3127186383462762	26	52300	3	0.7381470204436712	2.686820356676816	13	51696	2	0.7381470204436712	1.264897781644193
ecg0606	120	24	9	0.2960089911506619	16	51956	3	0.6659417137886038	1.6324488908220967	12	51764	3	0.6659417137886038	1.211396259243149
ecg0606	120	24	10	0.2823374523654633	20	52104	2	0.7081339712918661	2.001739886907351	13	51768	2	0.7081339712918661	1.264897781644193
ecg0606	120	24	12	0.26472521212063227	9	52020	3	0.5484993475424097	0.8956067855589387	8	51972	3	0.5484993475424097	0.7903436276642019
ecg0606	120	26	2	0.6226404316122497	166	45998	13	0.9899956502827316	24.062635928664637	11	37866	13	0.9899956502827316	1.9695519791213572
ecg0606	120	26	3	0.489063094385089	157	52144	8	0.9834710743801653	24.713788603740756	9	44528	7	0.9834710743801653	1.594606350587212
ecg0606	120	26	4	0.4042261840868488	144	58910	6	0.9460635058721183	17.566333188342757	14	51638	6	0.9460635058721183	1.742061765985211
ecg0606	120	26	5	0.37048762683839964	89	59088	6	0.916485428447151	10.28882122662027	13	54866	6	0.916485428447151	1.7903436276642017
ecg0606	120	26	6	0.33650219487861965	79	59572	3	0.9156154849934754	8.619399739016965	15	55470	3	0.9156154849934754	1.531970421922575
ecg0606	120	26	7	0.31321219835690645	56	58142	4	0.8355806872553284	6.06394084384515	14	55864	4	0.8355806872553284	1.5280556763810351
ecg0606	120	26	8	0.30598632959414285	16	56418	3	0.5654632448890822	1.6324488908220967	10	56106	3	0.5654632448890822	1.0008699434536754
ecg0606	120	26	9	0.2890859316464911	17	56234	3	0.7020443671161375	1.7920835145715528	13	56026	3	0.7020443671161375	1.318399304045237
ecg0606	120	26	10	0.27554800666221135	11	56432	2	0.5232709873858199	1.0543714658547194	9	56302	2	0.5232709873858199	0.8429752066115702
ecg0606	120	26	12	0.25837261984845783	9	56420	3	0.37233579817311874	0.8964767290126142	7	56316	3	0.37233579817311874	0.6859504132231405
ecg0606	120	28	2	0.6152011527120903	151	48156	9	0.9508481948673336	21.48629839060461	11	39960	9	0.9508481948673336	1.9177903436276642
ecg0606	120	28	3	0.4823926192231077	145	52876	9	0.97868638538495	19.842540234884734	11	45108	9	0.97868638538495	2.1322314049586777
ecg0606	120	28	4	0.3971506575127388	125	60556	6	0.9425837320574163	15.200956937799043	12	53832	6	0.9425837320574163	1.6929099608525446
ecg0606	120	28	5	0.36317912379676515	63	61716	6	0.9534580252283602	7.1200521966072206	13	58836	6	0.9534580252283602	1.579817311874728
ecg0606	120	28	6	0.3290776584064038	68	62380	5	0.9117007394519356	7.600695954762941	16	59196	5	0.9117007394519356	1.8455850369725968
ecg0606	120	28	7	0.3060549191386858	49	62068	4	0.8769030013049152	5.328403653762505	13	59952	4	0.8769030013049152	1.4762940408873424
ecg0606	120	28	8	0.29885510639145657	12	60636	2	0.5454545454545454	1.1587646802957807	10	60524	2	0.5454545454545454	0.948238364506307
ecg0606	120	28	9	0.28198615987967046	14	60672	2	0.6028708133971292	1.3692909960852544	11	60504	2	0.6028708133971292	1.053501522401044
ecg0606	120	28	10	0.26863475901641215	6	60744	2	0.3353632013919095	0.5271857329273597	6	60744	2	0.3353632013919095	0.5271857329273597
ecg0606	120	28	12	0.25127976240060923	7	60752	2	0.4802087864288821	0.631578947368421	7	60752	2	0.4802087864288821	0.631578947368421
ecg0606	120	30	2	0.6083352696886776	155	54624	11	0.994780339277947	22.85123966942149	11	45846	11	0.994780339277947	1.9630274032187909
ecg0606	120	30	3	0.4756944426526946	153	59048	7	0.9791213571117877	21.27490213136146	11	50810	6	0.9791213571117877	1.7968682035667682
ecg0606	120	30	4	0.3912909703073857	105	64276	4	0.9495432796868204	11.590256633318834	14	58252	4	0.9495432796868204	1.4784688995215312
ecg0606	120	30	5	0.35637040889734783	57	65776	3	0.9208351457155285	6.23444976076555	15	62906	3	0.9208351457155285	1.5297955632883862
ecg0606	120	30	6	0.32203510299933313	53	65990	4	0.8755980861244019	5.803827751196172	16	63578	3	0.8755980861244019	1.6881252718573292
ecg0606	120	30	7	0.29850402621885125	56	67170	4	0.7738147020443671	6.53675511091779	13	64372	4	0.7738147020443671	1.4745541539799913
ecg0606	120	30	8	0.29233050157483853	11	64872	2	0.5380600260983036	1.0526315789473684	10	64812	2	0.5380600260983036	0.9473684210526315
ecg0606	120	30	9	0.2755923294446247	9	65096	3	0.41539799913005654	0.8960417572857764	8	65006	2	0.41539799913005654	0.7368421052631579
ecg0606	120	30	10	0.26240769795159063	8	65114	3	0.32753371030882994	0.7894736842105263	6	64994	3	0.32753371030882994	0.5789473684210527
ecg0606	120	30	12	0.24491829200241744	2	65348	2	0.10526315789473684	0.10526315789473684	2	65348	2	0.10526315789473684	0.10526315789473684
ecg0606	140	2	2	1.1524454012145808	6	184	36	0.9952153110047847	8.331883427577207	2	152	36	0.9952153110047847	3.1109177903436276
ecg0606	140	2	3	0.7119620949070239	1	2	-2147483648	0.0	0.0	1	2	-2147483648	0.0	0.0
ecg0606	140	2	4	0.7979685752752206	6	184	36	0.9952153110047847	8.331883427577207	2	152	36	0.9952153110047847	3.1109177903436276
ecg0606	140	2	5	0.7070132016642912	6	94	14	0.9843410178338408	3.8603740756850806	4	74	14	0.9843410178338408	2.97868638538495
ecg0606	140	2	6	0.7034128220656894	6	184	36	0.9952153110047847	8.331883427577207	2	152	36	0.9952153110047847	3.1109177903436276
ecg0606	140	2	7	0.6870821950637535	10	248	27	1.0	7.882557633753806	3	192	23	1.0	2.2174858634188777
ecg0606	140	2	8	0.67384313550825	9	212	36	0.9952153110047847	7.6916050456720315	3	170	36	0.9952153110047847	3.3418877772944757
ecg0606	140	2	9	0.6638727432337146	9	284	28	1.0	8.739451935624185	3	228	28	1.0	4.264897781644193
ecg0606	140	2	10	0.6619043341946688	14	310	28	0.9952153110047847	7.725967812092214	4	230	28	0.9952153110047847	2.757285776424532
ecg0606	140	2	12	0.653238913026773	17	314	29	0.9952153110047847	10.057416267942584	5	226	7	0.9952153110047847	1.9460635058721183
ecg0606	140	4	2	0.9607001185633599	25	892	14	0.9956502827316225	10.894736842105264	4	700	13	0.9956502827316225	2.1735537190082646
ecg0606	140	4	3	0.7634598159532808	19	804	15	0.9969551979121357	8.472814267072641	3	644	15	0.9969551979121357	1.781209221400609
ecg0606	140	4	4	0.7296902114806106	45	1992	13	1.0	13.481948673336234	5	1552	13	1.0	1.3571117877337973
ecg0606	140	4	5	0.685914086975114	35	1456	15	0.996520226185298	11.90474119182253	3	1176	15	0.996520226185298	1.2235754675946064
ecg0606	140	4	6	0.6425479113047653	58	2120	11	0.9956502827316225	15.125706829056112	5	1608	11	0.9956502827316225	1.7072640278381905
ecg0606	140	4	7	0.6553509231705379	88	3148	20	0.9969551979121357	19.770334928229666	5	2384	20	0.9969551979121357	2.1452805567638102
ecg0606	140	4	8	0.6237387748337249	70	2984	13	1.0	17.216180948238364	7	2328	12	1.0	1.5189212701174424
ecg0606	140	4	9	0.6286456552418764	97	3656	11	0.9991300565463245	21.79469334493258	6	2812	11	0.9991300565463245	1.5724227925184864
ecg0606	140	4	10	0.6088541218415429	96	3312	9	0.996520226185298	18.672031317964333	9	2492	8	0.996520226185298	2.298825576337538
ecg0606	140	4	12	0.6043857005431688	120	4592	10	1.0	23.487603305785125	11	3564	10	1.0	1.8882122662026968
ecg0606	140	6	2	0.8587180890431074	45	2742	14	1.0	13.479773814702044	6	2198	14	1.0	1.9778164419312745
ecg0606	140	6	3	0.6576438315591535	34	2402	12	1.0	10.40887342322749	8	1938	11	1.0	1.9878207916485429
ecg0606	140	6	4	0.6295328885307854	61	4936	13	1.0	16.020443671161374	6	4006	13	1.0	1.711613745106568
ecg0606	140	6	5	0.6268793033254831	135	7056	13	0.9978251413658112	27.47498912570683	7	5488	13	0.9978251413658112	2.337973031752936
ecg0606	140	6	6	0.5773139988430177	80	5872	13	1.0	17.754675946063507	8	4822	13	1.0	1.6959547629404088
ecg0606	140	6	7	0.5638553712941964	140	7870	13	1.0	27.343627664201826	8	6194	13	1.0	1.5902566333188344
ecg0606	140	6	8	0.5523325989704357	121	7866	13	1.0	25.151805132666375	9	6482	13	1.0	1.7677250978686385
ecg0606	140	6	9	0.5356479231755451	147	8556	11	1.0	30.284471509351892	10	6904	11	1.0	1.884297520661157
ecg0606	140	6	10	0.5338677160920348	138	9408	13	0.9852109612875163	24.314919530230537	8	7608	13	0.9852109612875163	2.816876903001305
ecg0606	140	6	12	0.5167566760760645	133	9832	9	0.9886907351022184	24.559808612440193	10	8188	9	0.9886907351022184	1.7551109177903437
ecg0606	140	8	2	0.8138533148934035	77	5556	13	1.0	18.424097433666812	9	4432	13	1.0	1.841670291431057
ecg0606	140	8	3	0.6288835007191372	63	5264	14	0.9995650282731623	18.34275772074815	4	4256	14	0.9995650282731623	1.9208351457155284
ecg0606	140	8	4	0.5734750642998869	109	8536	10	1.0	21.75337103088299	7	6848	10	1.0	1.359721618094824
ecg0606	140	8	5	0.551947282526865	149	11584	9	1.0	25.87429317094389	11	9276	8	1.0	1.8708133971291867
ecg0606	140	8	6	0.5119739872866407	139	11316	10	0.9978251413658112	26.98782079164854	9	9208	7	0.9978251413658112	2.0217485863418876
ecg0606	140	8	7	0.48305213185515555	141	11912	14	0.9939103958242714	27.158764680295782	6	9704	14	0.9939103958242714	1.9795563288386255
ecg0606	140	8	8	0.4811291591721989	144	13628	9	0.9834710743801653	23.82992605480644	10	11388	9	0.9834710743801653	1.8573292735972162
ecg0606	140	8	9	0.4634823766709608	149	13868	9	1.0	26.343627664201826	10	11448	9	1.0	2.192692474989126
ecg0606	140	8	10	0.4620682734999179	153	15168	10	0.9991300565463245	23.834275772074815	9	12856	10	0.9991300565463245	1.7316224445411048
ecg0606	140	8	12	0.45106740236047865	129	15616	5	0.966072205306655	18.520226185297954	12	13600	5	0.966072205306655	1.6089604175728578
ecg0606	140	10	2	0.7779664559353174	90	9138	12	1.0	22.54284471509352	9	7526	12	1.0	1.779469334493258
ecg0606	140	10	3	0.6055147506808315	82	8584	13	0.9995650282731623	22.800782949108306	5	6896	12	0.9995650282731623	1.7646802957807743
ecg0606	140	10	4	0.5427353463745863	146	13926	12	1.0	29.82340147890387	10	11184	12	1.0	1.7459765115267507
ecg0606	140	10	5	0.5205590287890018	146	15884	10	1.0	27.456720313179645	12	13318	10	1.0	1.9847759895606785
ecg0606	140	10	6	0.4823848326031961	169	18078	11	0.9986950848194868	33.014354066985646	9	14990	11	0.9986950848194868	2.1039582427142234
ecg0606	140	10	7	0.45124978061886695	184	19242	8	0.998260113092649	30.470204436711615	11	15706	7	0.998260113092649	1.807742496737712
ecg0606	140	10	8	0.4461950568758922	155	19884	6	0.9812962157459765	21.769899956502826	11	16938	6	0.9812962157459765	1.6720313179643322
ecg0606	140	10	9	0.4264435611335808	155	19768	11	0.9978251413658112	26.93388429752066	9	16762	11	0.9978251413658112	1.9799913005654632
ecg0606	140	10	10	0.4209415271014889	124	20228	8	0.9913005654632449	19.264462809917354	11	17890	8	0.9913005654632449	1.7903436276642017
ecg0606	140	10	12	0.40370006946827497	108	21462	5	0.9791213571117877	15.181383210091344	13	19356	4	0.9791213571117877	1.722488038277512
ecg0606	140	12	2	0.7469561518072285	115	12224	11	1.0	24.43018703784254	11	9976	11	1.0	1.9051761635493694
ecg0606	140	12	3	0.5833645697588015	90	12152	12	0.9991300565463245	22.053066550674206	8	10016	12	0.9991300565463245	2.3392779469334495
ecg0606	140	12	4	0.517181088255819	136	17040	12	0.9952153110047847	27.910830795998262	8	14212	12	0.9952153110047847	2.701174423662462
ecg0606	140	12	5	0.4950645077835358	160	22220	12	0.9995650282731623	28.71726837755546	7	18628	12	0.9995650282731623	2.3014354066985647
ecg0606	140	12	6	0.45723276822173603	182	24900	9	1.0	30.857329273597216	12	20788	9	1.0	2.030013049151805
ecg0606	140	12	7	0.4273565655331225	166	24860	9	0.9934754240974336	27.367116137451067	11	21216	7	0.9934754240974336	2.2283601565898215
ecg0606	140	12	8	0.42317403697136174	110	25172	8	0.9760765550239234	16.233579817311874	12	22620	8	0.9760765550239234	1.9743366681165724
ecg0606	140	12	9	0.4025585021604815	152	26456	8	0.9852109612875163	24.188777729447587	10	22944	8	0.9852109612875163	2.1522401043932144
ecg0606	140	12	10	0.3937732913297597	84	24976	11	0.9756415832970857	12.604175728577642	9	23096	11	0.9756415832970857	1.9769464984775988
ecg0606	140	12	12	0.3764406014393039	84	26296	5	0.9652022618529795	12.010439321444107	13	24396	4	0.9652022618529795	1.8477598956067856
ecg0606	140	14	2	0.7223545097145448	117	15794	11	0.9960852544584602	22.03305785123967	7	12668	11	0.9960852544584602	1.9695519791213572
ecg0606	140	14	3	0.563837697869219	120	15952	13	0.9991300565463245	29.01739886907351	7	13046	13	0.9991300565463245	2.662026968247064
ecg0606	140	14	4	0.49391890088183965	169	23772	13	0.9991300565463245	31.487603305785125	11	19540	12	0.9991300565463245	2.3118747281426706
ecg0606	140	14	5	0.47179185377021404	150	27664	8	0.97868638538495	24.41844280121792	11	23700	5	0.97868638538495	1.7907785993910397
ecg0606	140	14	6	0.43494646655454317	174	30248	9	0.9969551979121357	28.948673336233146	11	25662	9	0.9969551979121357	2.52718573292736
ecg0606	140	14	7	0.4059596646870544	157	31142	8	0.9865158764680296	24.755110917790343	11	27142	8	0.9865158764680296	1.9699869508481949
ecg0606	140	14	8	0.4030171655826178	93	31178	6	0.964332318399304	13.049151805132666	11	28716	5	0.964332318399304	1.5367551109177904
ecg0606	140	14	9	0.38248560514707675	125	32444	4	0.9926054806437582	16.94954327968682	12	28858	4	0.9926054806437582	1.7198782079164854
ecg0606	140	14	10	0.37241593865711464	67	30896	3	0.9008264462809917	8.981731187472814	12	29264	2	0.9008264462809917	1.3536320139190952
ecg0606	140	14	12	0.3525728420194043	64	31008	5	0.9134406263592867	8.915180513266638	14	29548	5	0.9134406263592867	1.9043062200956937
ecg0606	140	16	2	0.7022530764029771	138	20516	13	1.0	28.088734232274902	9	16728	13	1.0	1.7625054371465854
ecg0606	140	16	3	0.5473358729270345	142	22560	11	1.0	30.863853849499783	12	18476	11	1.0	2.179643323183993
ecg0606	140	16	4	0.47672541261087076	173	29848	11	0.97868638538495	30.367551109177903	10	24852	11	0.97868638538495	1.9882557633753806
ecg0606	140	16	5	0.45346202042495376	161	34440	7	0.9826011309264898	24.160069595476294	11	29380	7	0.9826011309264898	1.9739016963897347
ecg0606	140	16	6	0.4158503230296623	146	34368	8	0.966072205306655	23.347542409743365	9	29884	8	0.966072205306655	2.156154849934754
ecg0606	140	16	7	0.387777749185949	135	36620	6	0.9743366681165724	18.907785993910394	12	32288	6	0.9743366681165724	1.720313179643323
ecg0606	140	16	8	0.38584910598705024	69	35208	3	0.9391039582427142	8.669421487603305	12	33160	3	0.9391039582427142	1.533710308829926
ecg0606	140	16	9	0.3654392211874711	88	36168	4	0.9491083079599826	11.7442366246194	13	33584	4	0.9491083079599826	1.658547194432362
ecg0606	140	16	10	0.3548880574410157	39	34652	3	0.8438451500652457	4.793388429752066	14	33816	2	0.8438451500652457	1.5998260113092648
ecg0606	140	16	12	0.33500319900360714	42	34900	3	0.8599391039582427	5.284471509351892	14	33936	3	0.8599391039582427	1.7216180948238364
ecg0606	140	18	2	0.6853458648716855	147	25348	10	0.9986950848194868	28.846454980426273	8	20744	10	0.9986950848194868	2.1257068290561114
ecg0606	140	18	3	0.5330370229253606	143	27942	13	1.0	30.128751631143977	10	22898	13	1.0	1.9812962157459766
ecg0606	140	18	4	0.4606893912916797	175	34854	10	0.9986950848194868	28.927794693344932	8	29090	10	0.9986950848194868	1.9134406263592867
ecg0606	140	18	5	0.4373133444105546	126	35856	6	0.939538929969552	18.171378860374077	11	31648	6	0.939538929969552	1.7333623314484559
ecg0606	140	18	6	0.39952537372293895	153	39600	6	0.998260113092649	22.33101348412353	12	34512	6	0.998260113092649	1.9073510221835581
ecg0606	140	18	7	0.37142880500000464	110	39432	5	0.9669421487603306	14.661591996520226	12	35608	5	0.9669421487603306	1.7246628969117008
ecg0606	140	18	8	0.3702240376031657	53	37874	5	0.9669421487603306	7.077859939103958	13	36396	3	0.9669421487603306	1.6620269682470639
ecg0606	140	18	9	0.3504228595587635	71	39790	4	0.9386689865158765	9.410178338408004	13	37566	3	0.9386689865158765	1.659852109612875
ecg0606	140	18	10	0.33943642195022056	37	38762	3	0.8499347542409743	4.546324488908221	14	37894	3	0.8499347542409743	1.658112222705524
ecg0606	140	18	12	0.3193641881539071	38	38870	4	0.9090909090909091	4.788603740756851	14	38034	3	0.9090909090909091	1.658547194432362
ecg0606	140	20	2	0.67000162674821	148	29080	10	0.9739016963897347	26.576772509786863	8	23688	10	0.9739016963897347	1.946498477598956
ecg0606	140	20	3	0.5201654675981815	137	29744	10	0.994780339277947	25.131361461505	10	24264	8	0.994780339277947	1.9308394954327968
ecg0606	140	20	4	0.44776363653175555	149	38488	9	0.9717268377555459	21.91300565463245	9	32640	9	0.9717268377555459	2.1670291431056983
ecg0606	140	20	5	0.42222505950991385	123	43196	6	0.9290996085254458	18.29447585906916	12	38768	4	0.9290996085254458	1.6633318834275772
ecg0606	140	20	6	0.384179844390226	110	41448	6	0.9508481948673336	15.590256633318834	11	37544	6	0.9508481948673336	1.8460200086994345
ecg0606	140	20	7	0.35573383258419	75	41700	5	0.8542844715093519	9.939103958242715	11	38828	3	0.8542844715093519	1.3558068725532841
ecg0606	140	20	8	0.3561726181475787	27	42124	3	0.8020878642888212	3.318399304045237	15	41640	3	0.8020878642888212	1.8421052631578947
ecg0606	140	20	9	0.3366525233199387	51	42340	4	0.7790343627664201	6.458460200086995	13	40560	3	0.7790343627664201	1.597651152675076
ecg0606	140	20	10	0.3259216105090946	12	42412	2	0.5759025663331884	1.3510221835580687	10	42332	2	0.5759025663331884	1.1056981296215747
ecg0606	140	20	12	0.30611196453227796	12	42532	2	0.6015658982166159	1.3536320139190952	10	42412	2	0.6015658982166159	1.1061331013484124
ecg0606	140	22	2	0.6583100154422598	165	37454	9	0.9952153110047847	29.97042192257503	9	30492	9	0.9952153110047847	2.044367116137451
ecg0606	140	22	3	0.5100081321183642	162	37140	9	0.9991300565463245	29.82340147890387	7	30382	9	0.9991300565463245	1.9812962157459766
ecg0606	140	22	4	0.43595442446514143	169	45266	9	0.9930404523705959	25.011309264897783	12	38610	9	0.9930404523705959	1.9721618094823836
ecg0606	140	22	5	0.4112687540953852	88	44116	8	0.9186602870813397	13.094388864723793	11	40640	8	0.9186602870813397	1.789908655937364
ecg0606	140	22	6	0.3733063259253492	103	48190	6	0.9595476294040888	14.53284036537625	13	44252	5	0.9595476294040888	1.843410178338408
ecg0606	140	22	7	0.34554015726810455	81	46820	6	0.9073510221835581	10.840800347977382	11	43616	6	0.9073510221835581	1.5367551109177904
ecg0606	140	22	8	0.3452098951059964	16	46078	3	0.6855154414963027	1.9025663331883427	10	45814	3	0.6855154414963027	1.1665941713788603
ecg0606	140	22	9	0.32616987385504836	37	46982	3	0.8969117007394519	4.55023923444976	13	45772	3	0.8969117007394519	1.5358851674641147
ecg0606	140	22	10	0.3144215901061624	18	46348	2	0.7994780339277947	2.0874293170943887	14	46172	2	0.7994780339277947	1.5967812092214007
ecg0606	140	22	12	0.2944180843740788	14	47144	2	0.5880817746846455	1.5989560678555894	9	46880	2	0.5880817746846455	0.983906046107003
ecg0606	140	24	2	0.6480299488132205	152	40800	7	0.9878207916485429	25.425402348847324	11	33852	7	0.9878207916485429	2.0456720313179644
ecg0606	140	24	3	0.5011368487149064	112	35528	6	0.9904306220095693	17.428012179208352	10	29708	6	0.9904306220095693	1.7468464549804263
ecg0606	140	24	4	0.4264626427543352	129	49188	8	0.9612875163114397	19.52675076120052	10	43124	8	0.9612875163114397	1.7851239669421488
ecg0606	140	24	5	0.4011967274213067	103	52936	10	0.9090909090909091	14.633318834275773	10	48312	10	0.9090909090909091	1.8421052631578947
ecg0606	140	24	6	0.36324037237562035	89	52488	5	0.9364941278816877	12.437581557198783	13	48600	5	0.9364941278816877	1.8460200086994345
ecg0606	140	24	7	0.33563065493394	47	51708	3	0.8899521531100478	5.898216615919965	14	49976	2	0.8899521531100478	1.5967812092214007
ecg0606	140	24	8	0.3355496310978125	15	50664	3	0.7037842540234884	1.7816441931274467	12	50516	3	0.7037842540234884	1.4119182253153546
ecg0606	140	24	9	0.3169130196431924	54	52500	4	0.9317094388864724	7.256633318834276	14	50680	3	0.9317094388864724	1.720313179643323
ecg0606	140	24	10	0.3048932917821816	17	51432	2	0.649412788168769	1.962592431491953	10	51096	2	0.649412788168769	1.1039582427142236
ecg0606	140	24	12	0.2849317026729167	11	51404	3	0.5933014354066986	1.2905611135276207	9	51308	3	0.5933014354066986	1.0452370595911267
ecg0606	140	26	2	0.6387332223914691	152	45152	9	0.9669421487603306	24.013919095258807	10	37242	9	0.9669421487603306	1.985645933014354
ecg0606	140	26	3	0.49288919866602154	150	48222	12	0.9860809047411918	28.279686820356677	9	40616	12	0.9860809047411918	2.4158329708568944
ecg0606	140	26	4	0.4175080906700669	133	56652	8	0.9582427142235754	20.33362331448456	10	50336	8	0.9582427142235754	1.5967812092214007
ecg0606	140	26	5	0.3921600501348743	69	55890	5	0.8921270117442366	8.995650282731622	11	52360	5	0.8921270117442366	1.5358851674641147
ecg0606	140	26	6	0.3540363366945003	74	57990	4	0.939538929969552	9.833840800347977	12	54630	4	0.939538929969552	1.656807307525011
ecg0606	140	26	7	0.3264119945218219	49	57044	3	0.9273597216180949	6.018703784254024	13	55012	3	0.9273597216180949	1.534145280556764
ecg0606	140	26	8	0.32663589421261047	11	55782	2	0.5802522836015659	1.2274902131361463	9	55678	2	0.5802522836015659	0.982166159199652
ecg0606	140	26	9	0.3084255069466932	31	56180	4	0.820356676816007	4.17833840800348	13	55232	4	0.820356676816007	1.7181383210091343
ecg0606	140	26	10	0.2961444962708675	14	55920	2	0.38581992170508916	1.5980861244019138	9	55656	2	0.38581992170508916	0.9830361026533275
ecg0606	140	26	12	0.2762733827627756	2	56116	2	0.12266202696824706	0.12266202696824706	2	56116	2	0.12266202696824706	0.12266202696824706
ecg0606	140	28	2	0.6292327711422855	163	50428	9	0.9913005654632449	27.858199217050892	10	42320	9	0.9913005654632449	1.9238799478033928
ecg0606	140	28	3	0.4856174695957358	174	56316	9	0.9886907351022184	28.661591996520226	8	46308	9	0.9886907351022184	1.9791213571117878
ecg0606	140	28	4	0.40900507376974027	124	62276	4	0.9508481948673336	16.794258373205743	13	55612	4	0.9508481948673336	1.7803392779469334
ecg0606	140	28	5	0.38283924153627136	50	61068	4	0.7368421052631579	6.3253588516746415	11	58744	3	0.7368421052631579	1.2909960852544584
ecg0606	140	28	6	0.3439220829285743	72	62608	6	0.8699434536755111	9.715528490648108	12	59048	6	0.8699434536755111	1.6594171378860374
ecg0606	140	28	7	0.31752407248919007	41	61292	3	0.7872988255763376	5.0939538929969554	11	59580	2	0.7872988255763376	1.2274902131361463
ecg0606	140	28	8	0.31777181402227905	1	60424	-2147483648	0.0	0.0	1	60424	-2147483648	0.0	0.0
ecg0606	140	28	9	0.30044019529086635	15	60480	2	0.44454110482818615	1.71900826446281	8	60088	2	0.44454110482818615	0.8603740756850805
ecg0606	140	28	10	0.2880510331228284	4	60336	2	0.27925184862983904	0.3679860809047412	4	60336	2	0.27925184862983904	0.3679860809047412
ecg0606	140	28	12	0.2680974364509744	8	60380	2	0.3270987385819922	0.861244019138756	6	60212	2	0.3270987385819922	0.6141800782949108
ecg0606	140	30	2	0.6236275441924474	154	54576	10	0.9525880817746847	24.44410613310135	10	45786	10	0.9525880817746847	2.414528055676381
ecg0606	140	30	3	0.47960452345728605	190	63876	8	0.9826011309264898	30.136146150500217	10	53072	6	0.9826011309264898	2.160504567203132
ecg0606	140	30	4	0.40326059967158223	113	66536	7	0.9469334493257938	15.653762505437147	11	59692	7	0.9469334493257938	1.7220530665506741
ecg0606	140	30	5	0.3775538987254171	50	65168	3	0.841670291431057	6.328403653762505	14	62962	3	0.841670291431057	1.7198782079164854
ecg0606	140	30	6	0.3389664934651062	50	66086	3	0.8490648107872988	6.384515006524576	14	63832	3	0.8490648107872988	1.71900826446281
ecg0606	140	30	7	0.3115116062226952	33	65226	2	0.7272727272727273	3.9277946933449326	13	63996	2	0.7272727272727273	1.4736842105263157
ecg0606	140	30	8	0.31199880125732915	5	64592	2	0.2849064810787299	0.49064810787298824	5	64592	2	0.2849064810787299	0.49064810787298824
ecg0606	140	30	9	0.2943688279342923	13	64878	2	0.4967377120487168	1.4754240974336668	7	64428	2	0.4967377120487168	0.7368421052631579
ecg0606	140	30	10	0.28202552130750624	5	64704	2	0.21313614615050022	0.49064810787298824	4	64644	2	0.21313614615050022	0.3679860809047412
ecg0606	140	30	12	0.2624709946230313	3	64696	2	0.12701174423662462	0.24532405393649412	3	64696	2	0.12701174423662462	0.24532405393649412
ecg0606	160	2	2	1.1687168987189938	6	182	36	0.9991300565463245	9.247063940843844	2	150	36	0.9991300565463245	3.419747716398434
ecg0606	160	2	3	0.6847958767391522	1	2	-2147483648	0.0	0.0	1	2	-2147483648	0.0	0.0
ecg0606	160	2	4	0.8131554237015062	6	182	36	0.9991300565463245	9.247063940843844	2	150	36	0.9991300565463245	3.419747716398434
ecg0606	160	2	5	0.6830084419914904	4	48	5	1.0	2.283166594171379	3	42	5	1.0	1.4723792953458026
ecg0606	160	2	6	0.711782677816025	6	182	36	0.9991300565463245	9.247063940843844	2	150	36	0.9991300565463245	3.419747716398434
ecg0606	160	2	7	0.6720208627637013	8	176	18	0.9891257068290561	6.039582427142236	2	132	18	0.9891257068290561	1.8073075250108743
ecg0606	160	2	8	0.6728486671704079	6	190	36	0.9991300565463245	7.9143105698129625	2	158	36	0.9991300565463245	3.3588516746411483
ecg0606	160	2	9	0.6564764355534418	9	172	27	1.0	8.453240539364941	3	128	23	1.0	3.49412788168769
ecg0606	160	2	10	0.6562182585195911	11	254	21	1.0	7.588516746411483	3	188	21	1.0	2.5254458460200087
ecg0606	160	2	12	0.6460548489378101	13	314	36	0.9991300565463245	8.394519356241844	3	238	36	0.9991300565463245	3.5776424532405393
ecg0606	160	4	2	1.0217552194622552	29	992	14	1.0	11.846020008699435	4	760	14	1.0	3.192257503262288
ecg0606	160	4	3	0.7694575892282555	20	776	15	1.0	8.046976946498477	3	596	15	1.0	1.4593301435406698
ecg0606	160	4	4	0.7481986731670409	41	1452	14	1.0	13.56589821661592	4	1100	14	1.0	3.0282731622444543
ecg0606	160	4	5	0.7015532163200277	32	1188	12	1.0	11.477163984341018	5	940	12	1.0	1.848629839060461
ecg0606	160	4	6	0.668480951418981	47	1932	12	1.0	13.638103523270987	5	1464	12	1.0	1.869943453675511
ecg0606	160	4	7	0.6768744090139603	63	2568	12	0.9834710743801653	15.629404088734232	6	2016	8	0.9834710743801653	1.2875163114397563
ecg0606	160	4	8	0.6451866628888486	68	2508	11	1.0	16.83384080034798	7	1896	11	1.0	1.9808612440191387
ecg0606	160	4	9	0.6483538937908422	79	2904	11	1.0	19.13571117877338	6	2208	11	1.0	1.6907351022183559
ecg0606	160	4	10	0.6315114591771571	75	2988	13	1.0	22.00782949108308	5	2284	13	1.0	2.10656807307525
ecg0606	160	4	12	0.625868740305976	93	3552	12	1.0	20.952153110047846	8	2728	12	1.0	2.1309264897781643
ecg0606	160	6	2	0.8868635444208888	40	2374	13	0.998260113092649	17.151805132666375	5	1910	13	0.998260113092649	2.215311004784689
ecg0606	160	6	3	0.6867346373072309	26	2306	11	0.9973901696389734	9.951283166594171	5	1880	9	0.9973901696389734	1.8869073510221837
ecg0606	160	6	4	0.6747185138950993	77	4356	13	0.998260113092649	19.865158764680295	6	3444	12	0.998260113092649	2.160504567203132
ecg0606	160	6	5	0.6490047338570275	107	6060	12	0.9986950848194868	24.276642018268813	6	4752	12	0.9986950848194868	1.6024358416702915
ecg0606	160	6	6	0.602601137992131	87	5690	13	1.0	24.012614180078295	6	4580	13	1.0	2.048281861678991
ecg0606	160	6	7	0.5895114049616954	123	7186	9	1.0	25.481513701609394	8	5704	9	1.0	1.5832970856894302
ecg0606	160	6	8	0.5761909693845568	113	7216	12	0.9973901696389734	24.232709873858198	6	5722	7	0.9973901696389734	1.5184862983906047
ecg0606	160	6	9	0.5653505451594473	131	8352	12	0.9986950848194868	28.967377120487168	5	6704	12	0.9986950848194868	1.2836015658982167
ecg0606	160	6	10	0.559367915881793	136	8588	11	0.9978251413658112	27.980426272292302	6	6994	11	0.9978251413658112	1.5863418877772946
ecg0606	160	6	12	0.5471475613981274	134	9524	11	0.9939103958242714	26.307525010874294	8	7850	11	0.9939103958242714	1.9177903436276642
ecg0606	160	8	2	0.8350932544425989	77	5428	13	0.998260113092649	21.524140930839497	4	4288	13	0.998260113092649	1.4949978251413658
ecg0606	160	8	3	0.641669565452219	62	5096	14	1.0	17.86646367986081	4	4044	14	1.0	1.3923444976076556
ecg0606	160	8	4	0.5971543778229191	107	7744	13	0.998260113092649	27.29621574597651	5	6176	13	0.998260113092649	1.9782514136581122
ecg0606	160	8	5	0.5747802919274287	154	11324	8	0.996520226185298	31.54240974336668	6	8980	7	0.996520226185298	1.507177033492823
ecg0606	160	8	6	0.5384454275189279	140	11416	11	0.998260113092649	30.381470204436713	7	9256	11	0.998260113092649	1.7233579817311875
ecg0606	160	8	7	0.5149757950735756	134	11572	14	0.9960852544584602	29.46672466289691	6	9492	13	0.9960852544584602	1.9256198347107438
ecg0606	160	8	8	0.5110351494640571	137	13200	9	0.9934754240974336	25.515876468029578	6	11004	9	0.9934754240974336	1.779469334493258
ecg0606	160	8	9	0.4975053585297361	155	14188	7	0.9991300565463245	27.61374510656807	9	11704	7	0.9991300565463245	1.642018268812527
ecg0606	160	8	10	0.4967443015979983	126	14836	5	0.9913005654632449	20.363201391909527	9	12812	4	0.9913005654632449	1.564158329708569
ecg0606	160	8	12	0.4830364168796244	119	15652	6	0.994780339277947	20.267942583732058	10	13672	6	0.994780339277947	1.549804262722923
ecg0606	160	10	2	0.7971818707189545	81	7704	13	0.9986950848194868	19.750326228795128	5	6266	12	0.9986950848194868	1.3244889082209657
ecg0606	160	10	3	0.6197343958697397	84	9226	12	0.9991300565463245	22.859939103958244	4	7528	12	0.9991300565463245	1.2514136581122226
ecg0606	160	10	4	0.5633032360974567	134	12434	14	0.9986950848194868	28.764245324053938	5	10034	14	0.9986950848194868	1.4332318399304045
ecg0606	160	10	5	0.5377718297473415	137	15072	12	0.998260113092649	26.46150500217486	6	12378	8	0.998260113092649	1.4923879947803393
ecg0606	160	10	6	0.4994883988122407	149	17108	11	0.9986950848194868	29.47672901261418	6	14124	11	0.9986950848194868	1.4971726837755546
ecg0606	160	10	7	0.474015174142986	142	17180	9	0.998260113092649	27.623749456285342	7	14512	9	0.998260113092649	1.980426272292301
ecg0606	160	10	8	0.46594663224260924	123	18320	8	0.9943453675511091	22.01565898216616	9	16020	8	0.9943453675511091	1.704654197477164
ecg0606	160	10	9	0.449480084965726	129	18674	7	0.9791213571117877	23.072640278381904	8	16216	7	0.9791213571117877	1.481948673336233
ecg0606	160	10	10	0.44414970679920346	114	19530	5	0.996520226185298	18.557633753806	10	17398	5	0.996520226185298	1.5471944323618965
ecg0606	160	10	12	0.42738258495612336	86	19986	6	0.9899956502827316	13.803827751196172	8	18304	6	0.9899956502827316	1.4771639843410178
ecg0606	160	12	2	0.7662343309860804	111	12460	14	0.9991300565463245	25.962592431491952	5	9980	14	0.9991300565463245	1.6541974771639842
ecg0606	160	12	3	0.5990173645849275	102	11008	10	0.9973901696389734	23.297085689430187	6	8720	10	0.9973901696389734	2.2966507177033493
ecg0606	160	12	4	0.5379145735882435	155	18560	11	1.0	33.53153545019574	8	15212	10	1.0	1.628099173553719
ecg0606	160	12	5	0.5137487294069067	159	21368	8	0.9991300565463245	30.093518921270118	8	17808	8	0.9991300565463245	1.772074815137016
ecg0606	160	12	6	0.4731064431608233	158	22948	7	0.996520226185298	27.934754240974335	8	19168	7	0.996520226185298	1.4106133101348413
ecg0606	160	12	7	0.4480498079563251	138	23852	10	0.983906046107003	24.928229665071772	8	20544	10	0.983906046107003	1.8995215311004785
ecg0606	160	12	8	0.4397246687563284	109	24104	6	0.9926054806437582	17.477598956067855	9	21644	4	0.9926054806437582	1.3453675511091778
ecg0606	160	12	9	0.42092966863019654	125	24696	5	0.9469334493257938	20.607220530665508	8	21656	5	0.9469334493257938	1.341887777294476
ecg0606	160	12	10	0.4145458817689589	73	24456	4	0.9438886472379295	11.403218790778599	11	22956	4	0.9438886472379295	1.6876903001304915
ecg0606	160	12	12	0.39626274534645556	62	24988	5	0.9464984775989561	9.12614180078295	11	23716	5	0.9464984775989561	1.7533710308829926
ecg0606	160	14	2	0.7400534365183586	117	16282	11	1.0	28.449760765550238	6	13276	11	1.0	1.5050021748586342
ecg0606	160	14	3	0.579806246775298	107	16250	12	0.9926054806437582	27.584167029143106	6	13436	11	0.9926054806437582	1.9456285341452806
ecg0606	160	14	4	0.5157327482536451	160	23566	8	0.994780339277947	31.664201826881254	7	19332	8	0.994780339277947	1.640713353632014
ecg0606	160	14	5	0.49193967819724493	138	27622	9	0.9986950848194868	25.56415832970857	8	23810	9	0.9986950848194868	1.8355806872553284
ecg0606	160	14	6	0.4513316230869212	152	29428	10	0.9904306220095693	28.100043497172685	7	25216	10	0.9904306220095693	1.7646802957807743
ecg0606	160	14	7	0.4266620917216617	108	29114	9	0.9752066115702479	20.0391474554154	9	26170	9	0.9752066115702479	1.9730317529360593
ecg0606	160	14	8	0.4188989788044003	89	29962	5	0.9852109612875163	13.437146585471945	9	27468	5	0.9852109612875163	1.4745541539799913
ecg0606	160	14	9	0.4001742913705609	85	29608	6	0.9560678555893867	13.718138321009134	10	27292	6	0.9560678555893867	1.8281861678990865
ecg0606	160	14	10	0.3914104504420101	65	30292	4	0.9782514136581122	9.690300130491519	11	28628	4	0.9782514136581122	1.6842105263157894
ecg0606	160	14	12	0.3728531931055422	61	30446	4	0.9717268377555459	9.129186602870814	11	28872	4	0.9717268377555459	1.5432796868203567
ecg0606	160	16	2	0.7180367420251124	126	20220	10	0.9921705089169204	25.6785558938669	5	16260	10	0.9921705089169204	1.499782514136581
ecg0606	160	16	3	0.5626209573104696	123	21204	12	0.9943453675511091	26.97868638538495	6	17168	11	0.9943453675511091	1.6537625054371465
ecg0606	160	16	4	0.49624333366147677	155	28668	12	1.0	31.35102218355807	7	24084	12	1.0	1.695519791213571
ecg0606	160	16	5	0.47167028299669395	130	31704	8	0.998260113092649	22.090474119182254	8	27588	8	0.998260113092649	1.4810787298825576
ecg0606	160	16	6	0.4317996602927923	120	33712	12	0.9926054806437582	22.359721618094824	6	29976	11	0.9926054806437582	1.5541539799913007
ecg0606	160	16	7	0.4070782953556693	112	35560	5	0.980426272292301	17.378425402348846	10	31824	5	0.980426272292301	1.5450195737277077
ecg0606	160	16	8	0.40065701009113247	63	34960	5	0.9847759895606786	9.272292301000435	11	33036	5	0.9847759895606786	1.6133101348412353
ecg0606	160	16	9	0.3825257000204668	65	35076	4	0.9286646367986081	9.749456285341452	11	33264	4	0.9286646367986081	1.6824706394084386
ecg0606	160	16	10	0.37226971646486995	46	34780	4	0.903871248368856	7.024358416702914	9	33504	4	0.903871248368856	1.404088734232275
ecg0606	160	16	12	0.35328206478814983	29	34480	3	0.768595041322314	4.205306655067421	9	33864	3	0.768595041322314	1.2622879512831666
ecg0606	160	18	2	0.7002605567478356	129	24262	12	0.9995650282731623	28.783384080034796	7	19960	12	0.9995650282731623	1.5706829056111353
ecg0606	160	18	3	0.5477024339713507	144	26648	10	1.0	31.27316224445411	8	21868	10	1.0	1.6346237494562854
ecg0606	160	18	4	0.4798262767969329	154	34196	8	0.9991300565463245	28.26576772509787	7	29058	8	0.9991300565463245	1.6233144845585037
ecg0606	160	18	5	0.4555936469723596	121	37470	6	0.973466724662897	19.559373640713353	9	33318	6	0.973466724662897	1.9012614180078296
ecg0606	160	18	6	0.415115266682482	124	38432	5	0.9943453675511091	19.374945628534146	11	33994	5	0.9943453675511091	1.6863853849499784
ecg0606	160	18	7	0.3906624974423256	98	39944	6	0.9621574597651152	15.030448020878643	10	36538	6	0.9621574597651152	1.5441496302740323
ecg0606	160	18	8	0.3854357228336829	29	37676	3	0.8742931709438887	4.1391909525880815	11	36956	3	0.8742931709438887	1.6141800782949107
ecg0606	160	18	9	0.3669242615351964	45	39246	3	0.8764680295780775	6.525010874293171	12	37906	2	0.8764680295780775	1.5415397999130056
ecg0606	160	18	10	0.35623476143719923	26	38560	3	0.7146585471944323	3.5785123966942147	10	37858	3	0.7146585471944323	1.3314484558503696
ecg0606	160	18	12	0.3372064815315698	20	38510	3	0.7759895606785558	2.8764680295780773	10	38110	3	0.7759895606785558	1.3323183993040453
ecg0606	160	20	2	0.684263745963277	148	30980	12	0.998260113092649	31.29099608525446	6	25248	12	0.998260113092649	1.9090909090909092
ecg0606	160	20	3	0.5349901092450253	148	32360	13	0.9952153110047847	32.838625489343194	5	26828	13	0.9952153110047847	1.491083079599826
ecg0606	160	20	4	0.4651329157710325	134	39848	6	0.9865158764680296	22.241844280121793	10	34636	6	0.9865158764680296	1.6929099608525446
ecg0606	160	20	5	0.440270260839945	101	41172	4	0.9347542409743367	15.412353197042192	10	37252	3	0.9347542409743367	1.5489343192692475
ecg0606	160	20	6	0.3994402760974528	92	42684	5	0.9460635058721183	14.41496302740322	11	39248	4	0.9460635058721183	1.5454545454545454
ecg0606	160	20	7	0.3760297171259828	72	42180	6	0.939538929969552	11.878207916485428	9	39556	6	0.939538929969552	1.686820356676816
ecg0606	160	20	8	0.37213745882094496	24	41320	4	0.7598956067855589	3.43801652892562	10	40720	4	0.7598956067855589	1.402348847324924
ecg0606	160	20	9	0.3538106280652092	19	42212	2	0.7759895606785558	2.5245759025663332	10	41772	2	0.7759895606785558	1.2605480643758156
ecg0606	160	20	10	0.34207740042790047	10	42296	2	0.4684645498042627	1.263157894736842	8	42176	2	0.4684645498042627	0.9812962157459765
ecg0606	160	20	12	0.32260727306206183	14	42472	4	0.5867768595041323	1.9621574597651152	7	42192	4	0.5867768595041323	0.9817311874728143
ecg0606	160	22	2	0.6714781676547649	149	32632	6	1.0	27.83123096998695	10	26496	6	1.0	1.7007394519356243
ecg0606	160	22	3	0.5235740813283356	138	34978	10	0.9913005654632449	29.392344497607656	6	29150	10	0.9913005654632449	1.5632883862548934
ecg0606	160	22	4	0.4532729699651509	125	43104	6	0.9852109612875163	20.124401913875598	9	37350	6	0.9852109612875163	1.7594606350587212
ecg0606	160	22	5	0.4283413056684137	83	45726	4	0.9882557633753806	12.224445411048281	10	42434	4	0.9882557633753806	1.4762940408873424
ecg0606	160	22	6	0.3871290713142108	86	45440	5	0.980426272292301	13.652457590256633	10	42208	5	0.980426272292301	1.6885602435841671
ecg0606	160	22	7	0.3631992993574613	55	46276	5	0.903871248368856	8.571117877337972	10	44206	5	0.903871248368856	1.6863853849499784
ecg0606	160	22	8	0.3593274545138676	17	45074	3	0.701174423662462	2.3144845585036973	11	44806	2	0.701174423662462	1.4014789038712483
ecg0606	160	22	9	0.3416622573883158	19	45730	3	0.8133971291866029	2.668986515876468	10	45268	3	0.8133971291866029	1.403653762505437
ecg0606	160	22	10	0.3299232314104845	7	46166	2	0.3514571552849065	0.8408003479773815	5	46078	2	0.3514571552849065	0.560678555893867
ecg0606	160	22	12	0.31121261697282143	15	46474	3	0.6942148760330579	2.0308829926054806	10	46254	3	0.6942148760330579	1.3305785123966942
ecg0606	160	24	2	0.660026738974173	158	39304	9	0.9960852544584602	30.249673771204872	9	32416	7	0.9960852544584602	1.9082209656372335
ecg0606	160	24	3	0.5137983674139109	124	37968	14	0.9930404523705959	26.794258373205743	6	32332	13	0.9930404523705959	1.7085689430187039
ecg0606	160	24	4	0.44257270967701223	107	46744	5	0.973466724662897	17.765985210961286	9	41756	5	0.973466724662897	1.5480643758155719
ecg0606	160	24	5	0.4175221691807376	67	50040	4	0.9147455415397999	9.91692040017399	10	46808	4	0.9147455415397999	1.405393649412788
ecg0606	160	24	6	0.3760068021631966	78	50392	5	0.976946498477599	11.883427577207481	10	46912	5	0.976946498477599	1.5484993475424098
ecg0606	160	24	7	0.3518867824246498	44	50524	3	0.7859939103958242	6.260113092648978	12	48668	3	0.7859939103958242	1.683340582862114
ecg0606	160	24	8	0.3485345311346266	11	50092	3	0.6146150500217485	1.4719443236189649	7	49900	3	0.6146150500217485	0.9108307959982601
ecg0606	160	24	9	0.33138020374824173	23	49908	3	0.8908220965637234	3.160504567203132	11	49236	3	0.8908220965637234	1.473249238799478
ecg0606	160	24	10	0.31922698789888443	12	50792	2	0.56589821661592	1.5458895171813831	8	50528	2	0.56589821661592	0.9830361026533275
ecg0606	160	24	12	0.30078031525741666	9	50864	2	0.5876468029578077	1.120922140060896	8	50816	2	0.5876468029578077	0.9808612440191388
ecg0606	160	26	2	0.6501626266629744	152	45596	6	0.9930404523705959	27.369290996085255	8	37832	4	0.9930404523705959	1.3453675511091778
ecg0606	160	26	3	0.5052736612607339	138	44990	10	0.9760765550239234	29.003479773814703	6	38326	8	0.9760765550239234	1.3444976076555024
ecg0606	160	26	4	0.4334104178799002	94	51592	6	0.9878207916485429	14.316659417137886	9	46412	6	0.9878207916485429	1.411048281861679
ecg0606	160	26	5	0.40788366336083737	64	54088	5	0.9269247498912571	9.487168334058286	9	50996	5	0.9269247498912571	1.5458895171813831
ecg0606	160	26	6	0.3663227212417674	69	55896	3	0.9495432796868204	10.183558068725533	11	52626	2	0.9495432796868204	1.4049586776859504
ecg0606	160	26	7	0.3423044313563014	26	55262	2	0.667246628969117	3.5102218355806873	9	54248	2	0.667246628969117	1.1239669421487604
ecg0606	160	26	8	0.33930473570236375	9	54196	2	0.6498477598956068	1.121357111787734	9	54196	2	0.6498477598956068	1.121357111787734
ecg0606	160	26	9	0.32233224794171644	8	54960	2	0.6163549369290996	0.9812962157459765	7	54908	2	0.6163549369290996	0.8412353197042193
ecg0606	160	26	10	0.30998214700886567	4	55170	2	0.34406263592866465	0.4201826881252719	4	55170	2	0.34406263592866465	0.4201826881252719
ecg0606	160	26	12	0.29163904739314683	3	55266	2	0.20400173988690734	0.28012179208351456	3	55266	2	0.20400173988690734	0.28012179208351456
ecg0606	160	28	2	0.6413248317059408	159	51228	6	0.9995650282731623	26.869508481948674	7	42700	6	0.9995650282731623	1.4106133101348413
ecg0606	160	28	3	0.4974720711956833	132	49080	8	0.9939103958242714	26.132666376685517	6	42680	7	0.9939103958242714	1.4828186167899087
ecg0606	160	28	4	0.4250074774646251	99	58304	5	0.9186602870813397	15.401043932144411	9	53024	4	0.9186602870813397	1.3340582862113963
ecg0606	160	28	5	0.3993967414710536	48	59444	3	0.8438451500652457	6.810787298825576	10	56920	3	0.8438451500652457	1.4019138755980862
ecg0606	160	28	6	0.35767108859743457	49	59560	5	0.9151805132666376	7.5041322314049586	10	57316	5	0.9151805132666376	1.473249238799478
ecg0606	160	28	7	0.333611701144595	24	59744	3	0.6903001304915181	3.295780774249674	10	58876	3	0.6903001304915181	1.3318834275772076
ecg0606	160	28	8	0.3309953544617025	7	59380	2	0.5767725097868639	0.8403653762505437	7	59380	2	0.5767725097868639	0.8403653762505437
ecg0606	160	28	9	0.3140598323361114	9	59596	2	0.4649847759895607	1.1230969986950847	6	59428	2	0.4649847759895607	0.702914310569813
ecg0606	160	28	10	0.3017087918172549	5	59532	2	0.3845150065245759	0.5611135276207047	5	59532	2	0.3845150065245759	0.5611135276207047
ecg0606	160	28	12	0.2834824613730246	2	59844	2	0.1339712918660287	0.14006089604175728	2	59844	2	0.1339712918660287	0.14006089604175728
ecg0606	160	30	2	0.6334745621675593	144	56072	6	0.9782514136581122	24.380600260983037	8	47308	6	0.9782514136581122	1.555023923444976
ecg0606	160	30	3	0.4907482180622232	146	57778	8	0.9952153110047847	28.679860809047412	7	50098	8	0.9952153110047847	1.5480643758155719
ecg0606	160	30	4	0.417691310950204	96	65658	5	0.8603740756850805	14.880817746846455	9	60316	4	0.8603740756850805	1.3349282296650717
ecg0606	160	30	5	0.3918257805957881	29	61974	3	0.8129621574597651	4.3518921270117445	10	60856	3	0.8129621574597651	1.3340582862113963
ecg0606	160	30	6	0.34998705177236633	44	65256	3	0.8990865593736407	6.168769030013049	12	63156	3	0.8990865593736407	1.681600695954763
ecg0606	160	30	7	0.3258194260533116	19	64148	4	0.747281426707264	2.665506742061766	8	63424	4	0.747281426707264	1.1204871683340583
ecg0606	160	30	8	0.32337235146493815	7	63686	3	0.6642018268812527	0.980426272292301	7	63686	3	0.6642018268812527	0.980426272292301
ecg0606	160	30	9	0.30702840535027753	7	63970	2	0.4441061331013484	0.8412353197042193	6	63910	2	0.4441061331013484	0.701174423662462
ecg0606	160	30	10	0.2942406637671797	3	64010	3	0.20617659852109613	0.3501522401043932	3	64010	3	0.20617659852109613	0.3501522401043932
ecg0606	160	30	12	0.2763455008586404	3	64096	2	0.20400173988690734	0.28012179208351456	3	64096	2	0.20400173988690734	0.28012179208351456
ecg0606	180	2	2	1.183464854150071	6	162	31	1.0	8.15876468029578	2	130	31	1.0	3.3353632013919094
ecg0606	180	2	3	0.672824217637026	1	2	-2147483648	0.0	0.0	1	2	-2147483648	0.0	0.0
ecg0606	180	2	4	0.8278732150544752	6	162	31	1.0	8.15876468029578	2	130	31	1.0	3.3353632013919094
ecg0606	180	2	5	0.6715179373679433	4	62	10	0.9930404523705959	3.8799478033927794	2	46	10	0.9930404523705959	1.69377990430622
ecg0606	180	2	6	0.7248177087199804	6	162	31	1.0	8.15876468029578	2	130	31	1.0	3.3353632013919094
ecg0606	180	2	7	0.6633746847577938	6	84	10	1.0	4.874293170943889	3	62	8	1.0	1.9117007394519356
ecg0606	180	2	8	0.6809277077844281	6	170	31	1.0	7.296215745976512	2	138	31	1.0	3.286646367986081
ecg0606	180	2	9	0.6541557549206218	9	140	15	0.9956502827316225	4.86428882122662	3	98	15	0.9956502827316225	2.2409743366681165
ecg0606	180	2	10	0.6580519361429576	6	178	31	1.0	5.600260983036103	3	146	31	1.0	3.382775119617225
ecg0606	180	2	12	0.6439038523365764	9	258	27	1.0	7.678120922140061	3	198	27	1.0	3.2174858634188777
ecg0606	180	4	2	1.0732706122431197	21	768	14	1.0	11.919095258808177	5	608	14	1.0	2.060461070030448
ecg0606	180	4	3	0.7612850167145149	20	720	15	1.0	10.568943018703784	3	568	15	1.0	1.8360156589821661
ecg0606	180	4	4	0.7714910754158868	32	1244	11	1.0	11.301870378425402	5	936	10	1.0	1.941278816876903
ecg0606	180	4	5	0.7121732545633254	31	1128	8	1.0	10.125706829056112	7	864	8	1.0	1.9317094388864724
ecg0606	180	4	6	0.6881111362279937	45	1812	14	1.0	16.053936494127882	5	1392	14	1.0	1.8229665071770336
ecg0606	180	4	7	0.6904705000583762	51	2012	12	0.9952153110047847	16.21835580687255	4	1544	12	0.9952153110047847	2.0865593736407133
ecg0606	180	4	8	0.6595096538565205	51	2112	13	0.9986950848194868	16.26011309264898	5	1624	13	0.9986950848194868	2.602870813397129
ecg0606	180	4	9	0.6658955371672328	74	2604	13	1.0	19.74032187907786	5	1992	13	1.0	1.9190952588081776
ecg0606	180	4	10	0.6472674701216071	63	2740	14	0.998260113092649	18.48803827751196	4	2128	14	0.998260113092649	1.5832970856894302
ecg0606	180	4	12	0.640635142401784	87	3348	9	0.9986950848194868	21.371465854719442	5	2536	9	0.9986950848194868	1.5732927359721618
ecg0606	180	6	2	0.9169911120726647	41	2136	13	1.0	13.050021748586342	4	1726	13	1.0	1.6885602435841671
ecg0606	180	6	3	0.7240388091847928	41	2216	13	1.0	15.283601565898216	6	1776	11	1.0	2.172683775554589
ecg0606	180	6	4	0.7006849019809203	64	3918	12	1.0	17.99826011309265	7	3160	12	1.0	1.8603740756850804
ecg0606	180	6	5	0.6677859448388679	81	4820	14	0.9986950848194868	23.268812527185734	5	3878	14	0.9986950848194868	1.622879512831666
ecg0606	180	6	6	0.6231757365846796	87	4904	13	0.9973901696389734	23.816876903001305	6	3920	13	0.9973901696389734	2.115702479338843
ecg0606	180	6	7	0.6181666093526424	105	6212	10	0.9978251413658112	23.22227055241409	7	4960	10	0.9978251413658112	1.6829056111352763
ecg0606	180	6	8	0.5979516781684798	98	6334	10	1.0	22.923444976076556	6	5078	10	1.0	1.5350152240104393
ecg0606	180	6	9	0.5932382407569565	99	7214	11	1.0	23.863853849499783	9	6010	11	1.0	2.174858634188778
ecg0606	180	6	10	0.5840703562955311	115	7744	9	1.0	24.426272292301	8	6308	9	1.0	2.1113527620704655
ecg0606	180	6	12	0.5730602999229096	116	8512	8	0.9978251413658112	22.75337103088299	9	7084	4	0.9978251413658112	1.675946063505872
ecg0606	180	8	2	0.8526472485766143	70	4880	12	0.9869508481948673	20.733362331448454	5	3856	11	0.9869508481948673	2.420182688125272
ecg0606	180	8	3	0.6618523602062294	66	4728	14	0.9995650282731623	21.99434536755111	4	3828	14	0.9995650282731623	1.7324923879947804
ecg0606	180	8	4	0.6227162967548582	106	7948	11	1.0	26.574597651152676	9	6404	9	1.0	1.9277946933449326
ecg0606	180	8	5	0.6045787008340381	124	10340	10	0.9978251413658112	28.500652457590256	6	8384	7	0.9978251413658112	1.446715963462375
ecg0606	180	8	6	0.5656129815826223	130	10616	10	1.0	28.841670291431058	8	8580	10	1.0	1.7581557198782078
ecg0606	180	8	7	0.5496512873592638	131	12116	11	0.9991300565463245	31.239669421487605	6	10024	11	0.9991300565463245	2.0813397129186604
ecg0606	180	8	8	0.5412210761741691	127	12492	8	0.9913005654632449	26.48064375815572	7	10484	8	0.9913005654632449	1.6785558938668987
ecg0606	180	8	9	0.5283693762970892	136	13760	8	0.9978251413658112	27.846020008699433	8	11652	5	0.9978251413658112	1.5919965202261852
ecg0606	180	8	10	0.5241999327034633	117	14000	7	0.9899956502827316	22.59547629404089	8	12136	7	0.9899956502827316	1.9030013049151806
ecg0606	180	8	12	0.5096765915190291	105	14860	5	0.9534580252283602	19.1048281861679	9	13264	5	0.9534580252283602	1.5919965202261852
ecg0606	180	10	2	0.8138792018414979	87	7904	14	0.998260113092649	22.638973466724664	4	6306	14	0.998260113092649	1.4693344932579382
ecg0606	180	10	3	0.6340736496828657	83	7846	10	0.996520226185298	23.138321009134405	5	6270	7	0.996520226185298	1.489343192692475
ecg0606	180	10	4	0.5787449389872282	106	11556	9	0.998260113092649	24.678990865593736	7	9586	9	0.998260113092649	1.8703784254023488
ecg0606	180	10	5	0.5570893861509376	127	14820	11	0.9956502827316225	27.30622009569378	6	12332	11	0.9956502827316225	1.8455850369725968
ecg0606	180	10	6	0.5190442205807299	133	15638	9	0.998260113092649	28.56415832970857	6	12988	9	0.998260113092649	1.3653762505437146
ecg0606	180	10	7	0.49836705697977074	124	16602	9	0.987385819921705	26.157894736842106	7	14218	9	0.987385819921705	1.9169204001739888
ecg0606	180	10	8	0.4906268004292855	102	16964	8	0.9782514136581122	18.824271422357548	7	15106	8	0.9782514136581122	1.9073510221835581
ecg0606	180	10	9	0.4736397650945512	98	17398	9	0.9895606785558939	19.467159634623748	7	15486	9	0.9895606785558939	1.5197912135711178
ecg0606	180	10	10	0.4689285813056312	83	18598	6	0.9808612440191388	15.20182688125272	9	17050	3	0.9808612440191388	1.5058721183123096
ecg0606	180	10	12	0.4523645850727471	75	18756	6	0.9443236189647672	13.899956502827317	9	17342	6	0.9443236189647672	1.665506742061766
ecg0606	180	12	2	0.7826615174348661	98	11932	12	1.0	26.43845150065246	5	9668	12	1.0	1.8568943018703785
ecg0606	180	12	3	0.6148166259813033	86	11500	11	0.9986950848194868	25.806872553284038	5	9456	11	0.9986950848194868	2.7481513701609397
ecg0606	180	12	4	0.5535323335962712	130	17096	12	0.9986950848194868	29.68247063940844	6	14080	8	0.9986950848194868	2.150935189212701
ecg0606	180	12	5	0.5282266002270882	116	19724	7	0.9991300565463245	23.737712048716833	8	17004	5	0.9991300565463245	1.5915615484993475
ecg0606	180	12	6	0.4888077283820796	134	21392	8	0.9986950848194868	27.505002174858635	7	18300	8	0.9986950848194868	1.4258373205741626
ecg0606	180	12	7	0.4648802508748709	123	22924	6	0.9939103958242714	22.67072640278382	9	20008	6	0.9939103958242714	1.585471944323619
ecg0606	180	12	8	0.4571012279850277	90	23596	7	0.9969551979121357	16.233579817311874	9	21388	4	0.9969551979121357	1.745541539799913
ecg0606	180	12	9	0.4386761755452043	113	24164	8	0.9773814702044367	21.316659417137885	8	21520	8	0.9773814702044367	1.742061765985211
ecg0606	180	12	10	0.43421090383711575	67	23720	4	0.9512831665941713	11.625489343192692	9	22256	4	0.9512831665941713	1.5811222270552414
ecg0606	180	12	12	0.4169087936447907	54	24660	4	0.9338842975206612	8.683340582862114	9	23512	4	0.9338842975206612	1.4184428012179209
ecg0606	180	14	2	0.7559505907615378	121	15098	9	0.9995650282731623	30.61809482383645	7	12254	9	0.9995650282731623	2.1670291431056983
ecg0606	180	14	3	0.5962551056259087	107	15552	13	0.996520226185298	28.055241409308394	5	12806	13	0.996520226185298	1.6394084384515006
ecg0606	180	14	4	0.5320069346872136	132	22444	11	0.9995650282731623	29.497607655502392	8	18964	8	0.9995650282731623	1.7433666811657242
ecg0606	180	14	5	0.5070442096220803	136	26702	8	0.998260113092649	26.163549369290998	7	22950	8	0.998260113092649	1.6646367986080906
ecg0606	180	14	6	0.4670307878863383	120	26484	7	0.9930404523705959	23.63418877772945	8	23220	6	0.9930404523705959	1.900391474554154
ecg0606	180	14	7	0.4422432208006539	128	29386	5	0.9808612440191388	22.700739451935625	9	25926	5	0.9808612440191388	1.8960417572857764
ecg0606	180	14	8	0.4346805457017361	63	28500	4	0.9712918660287081	10.75598086124402	10	26886	3	0.9712918660287081	1.5036972596781208
ecg0606	180	14	9	0.4161430789173749	96	29580	5	0.9960852544584602	16.36450630709004	9	26916	5	0.9960852544584602	1.8155719878207917
ecg0606	180	14	10	0.4078050899033395	58	29480	4	0.9330143540669856	9.551109177903436	9	27970	3	0.9330143540669856	1.343192692474989
ecg0606	180	14	12	0.3905841758091644	33	29052	3	0.9030013049151805	5.282731622444541	10	28380	2	0.9030013049151805	1.420182688125272
ecg0606	180	16	2	0.7335972977072104	125	19584	9	1.0	27.949108307959982	7	15992	9	1.0	1.6820356676816006
ecg0606	180	16	3	0.5790666528442653	100	19668	12	0.9865158764680296	26.20400173988691	6	16508	12	0.9865158764680296	2.163549369290996
ecg0606	180	16	4	0.5130538570694183	138	27948	8	0.9712918660287081	26.216615919965204	9	23772	8	0.9712918660287081	1.9012614180078296
ecg0606	180	16	5	0.48825225222684987	115	31768	7	0.9973901696389734	21.776424532405393	8	28364	7	0.9973901696389734	1.5028273162244454
ecg0606	180	16	6	0.44809450578869753	104	32796	10	0.9721618094823836	21.481078729882558	6	29372	10	0.9721618094823836	1.5010874293170944
ecg0606	180	16	7	0.4230694949078707	97	33412	8	0.9852109612875163	19.065245759025665	10	30600	6	0.9852109612875163	2.0548064375815573
ecg0606	180	16	8	0.4165614102059437	40	32824	3	0.8947368421052632	6.468029578077425	11	31892	3	0.8947368421052632	1.6602870813397128
ecg0606	180	16	9	0.3978365219591639	49	33060	4	0.9456285341452806	8.066115702479339	12	31708	3	0.9456285341452806	1.8199217050891692
ecg0606	180	16	10	0.3883073782230936	37	33724	4	0.8568943018703784	6.150500217485863	11	32848	4	0.8568943018703784	1.8903871248368855
ecg0606	180	16	12	0.3710705488029342	30	33452	5	0.8777729447585907	4.974336668116573	9	32768	5	0.8777729447585907	1.5010874293170944
ecg0606	180	18	2	0.7140351550787098	120	23868	7	0.9991300565463245	24.25750326228795	7	19546	7	0.9991300565463245	1.5967812092214007
ecg0606	180	18	3	0.5635834721736512	121	24940	10	0.9978251413658112	28.69986950848195	6	20846	10	0.9978251413658112	1.7577207481513701
ecg0606	180	18	4	0.4960074258488899	129	33132	8	1.0	24.080034797738147	9	28612	8	1.0	1.8207916485428448
ecg0606	180	18	5	0.4709328632366667	95	35916	6	1.0	17.187037842540235	11	32594	6	1.0	1.9791213571117878
ecg0606	180	18	6	0.4307234935061284	93	37834	7	0.9865158764680296	17.97085689430187	8	34570	7	0.9865158764680296	1.659852109612875
ecg0606	180	18	7	0.40583043794815576	75	38818	4	0.9634623749456286	12.569377990430622	10	35886	4	0.9634623749456286	1.6589821661591997
ecg0606	180	18	8	0.39940036598092765	33	37970	3	0.9012614180078294	5.282296650717703	10	37102	3	0.9012614180078294	1.499782514136581
ecg0606	180	18	9	0.3814337196513903	36	38470	3	0.921705089169204	5.610265332753371	10	37300	3	0.921705089169204	1.5041322314049588
ecg0606	180	18	10	0.3710328112782633	19	38124	3	0.8260113092648977	2.994345367551109	9	37710	3	0.8260113092648977	1.4171378860374075
ecg0606	180	18	12	0.35485571056595666	13	38228	2	0.48760330578512395	1.8921270117442366	5	37904	2	0.48760330578512395	0.6307090039147455
ecg0606	180	20	2	0.6976377925762937	136	28772	9	0.9995650282731623	32.17311874728143	7	23968	6	0.9995650282731623	1.7551109177903437
ecg0606	180	20	3	0.5499955305581353	119	29932	9	0.9986950848194868	25.497607655502392	7	25244	9	0.9986950848194868	1.681600695954763
ecg0606	180	20	4	0.4807210880183014	121	39044	7	0.982166159199652	24.57938234014789	7	34424	7	0.982166159199652	1.6628969117007395
ecg0606	180	20	5	0.45622260801025893	78	40332	5	0.9417137886037408	13.683340582862114	9	37088	3	0.9417137886037408	1.3462374945628535
ecg0606	180	20	6	0.4157446732972451	67	42100	4	0.9730317529360591	11.694214876033058	8	39528	3	0.9730317529360591	1.3410178338408003
ecg0606	180	20	7	0.39088747783916666	56	42764	3	0.9404088734232275	8.755545889517181	11	40800	2	0.9404088734232275	1.576772509786864
ecg0606	180	20	8	0.3856365582023542	19	41572	2	0.8338408003479774	2.8390604610700305	10	41152	2	0.8338408003479774	1.4193127446715963
ecg0606	180	20	9	0.36694320195994523	24	42460	3	0.7999130056546324	3.704219225750326	8	41760	3	0.7999130056546324	1.1818181818181819
ecg0606	180	20	10	0.355686920835508	18	42196	2	0.6881252718573293	2.681165724227925	8	41736	2	0.6881252718573293	1.1039582427142236
ecg0606	180	20	12	0.33959775008769333	2	42248	2	0.14136581122227054	0.15745976511526752	2	42248	2	0.14136581122227054	0.15745976511526752
ecg0606	180	22	2	0.6840726723164285	136	32834	9	0.9986950848194868	28.241844280121793	7	27474	9	0.9986950848194868	1.595911265767725
ecg0606	180	22	3	0.5383257122236063	131	36916	12	0.9960852544584602	28.62026968247064	5	31228	12	0.9960852544584602	1.5115267507612005
ecg0606	180	22	4	0.4683989591575226	97	41462	9	0.9852109612875163	19.19573727707699	8	37374	9	0.9852109612875163	1.6663766855154416
ecg0606	180	22	5	0.44309763628284315	66	44716	5	0.8982166159199652	11.463679860809048	7	41860	5	0.8982166159199652	1.1826881252718573
ecg0606	180	22	6	0.4028248617418926	48	46104	4	0.8790778599391039	7.973466724662897	9	44160	4	0.8790778599391039	1.4210526315789473
ecg0606	180	22	7	0.37773816235928126	51	44518	4	0.9330143540669856	8.46107003044802	10	42636	4	0.9330143540669856	1.5832970856894302
ecg0606	180	22	8	0.3730707946303371	9	45800	2	0.5772074815137016	1.2605480643758156	6	45646	2	0.5772074815137016	0.7872988255763376
ecg0606	180	22	9	0.3549810520739598	17	46070	3	0.7268377555458895	2.6050456720313178	9	45648	2	0.7268377555458895	1.2622879512831666
ecg0606	180	22	10	0.3436134504462434	8	45988	3	0.49151805132666376	1.1826881252718573	7	45922	3	0.49151805132666376	1.0243584167029143
ecg0606	180	22	12	0.32756184472825256	4	46356	2	0.3157894736842105	0.47237929534580253	4	46356	2	0.3157894736842105	0.47237929534580253
ecg0606	180	24	2	0.6723457008131393	137	37320	7	0.9986950848194868	27.12048716833406	7	31140	6	0.9986950848194868	1.6694214876033058
ecg0606	180	24	3	0.5285582437819648	112	38216	6	0.9691170073945193	21.549804262722922	9	32892	6	0.9691170073945193	1.6859504132231404
ecg0606	180	24	4	0.4574704698054252	96	47392	6	0.9708568943018704	17.096128751631145	9	42992	6	0.9708568943018704	1.9743366681165724
ecg0606	180	24	5	0.4323152195576587	52	48360	5	0.9443236189647672	8.936494127881687	11	45952	3	0.9443236189647672	1.7398869073510221
ecg0606	180	24	6	0.39169497694206246	49	48812	4	0.9565028273162245	8.616354936929099	9	46712	4	0.9565028273162245	1.6633318834275772
ecg0606	180	24	7	0.36662283018253705	42	51028	3	0.7907785993910396	6.539364941278817	10	49396	3	0.7907785993910396	1.4958677685950412
ecg0606	180	24	8	0.3620482091041568	11	49732	3	0.5959112657677251	1.6572422792518486	7	49468	3	0.5959112657677251	1.0243584167029143
ecg0606	180	24	9	0.34449873539357023	8	49856	2	0.5963462374945628	1.1043932144410613	8	49856	2	0.5963462374945628	1.1043932144410613
ecg0606	180	24	10	0.33254891766811645	11	50524	3	0.5750326228795128	1.6559373640713353	7	50284	3	0.5750326228795128	1.0243584167029143
ecg0606	180	24	12	0.3170647398300759	4	50416	2	0.1879077859939104	0.47237929534580253	3	50368	2	0.1879077859939104	0.31491953023053504
ecg0606	180	26	2	0.660916665274398	120	39472	6	0.9973901696389734	23.602000869943453	8	33650	6	0.9973901696389734	1.674206176598521
ecg0606	180	26	3	0.5186441371814292	114	44424	9	0.9930404523705959	23.71335363201392	6	38138	9	0.9930404523705959	1.9103958242714223
ecg0606	180	26	4	0.4469093033527087	70	48720	4	0.960852544584602	12.103088299260548	10	45550	3	0.960852544584602	1.5041322314049588
ecg0606	180	26	5	0.4212447035295719	39	54386	2	0.8938668986515876	6.0	10	52488	2	0.8938668986515876	1.4184428012179209
ecg0606	180	26	6	0.38072483361271414	34	51914	5	0.9130056546324489	5.768595041322314	11	50680	3	0.9130056546324489	1.656807307525011
ecg0606	180	26	7	0.35544748399910686	27	53210	3	0.8895171813832101	4.344497607655502	11	52270	3	0.8895171813832101	1.7372770769899957
ecg0606	180	26	8	0.3511699573386049	6	54112	2	0.4754240974336668	0.7872988255763376	5	54060	2	0.4754240974336668	0.6298390604610701
ecg0606	180	26	9	0.33422044648259475	10	53876	2	0.6576772509786863	1.4171378860374075	8	53772	2	0.6576772509786863	1.1022183558068726
ecg0606	180	26	10	0.3217307456713206	5	54702	2	0.27229230100043494	0.6298390604610701	4	54650	2	0.27229230100043494	0.47237929534580253
ecg0606	180	26	12	0.30639995278089416	1	54990	-2147483648	0.0	0.0	1	54990	-2147483648	0.0	0.0
ecg0606	180	28	2	0.6514785703574039	148	50872	9	0.9995650282731623	30.551109177903438	8	43448	9	0.9995650282731623	2.0574162679425836
ecg0606	180	28	3	0.5103345577560631	120	48824	6	0.994780339277947	24.275772074815137	9	42784	6	0.994780339277947	1.8307959982601132
ecg0606	180	28	4	0.4378323096301144	72	57100	5	0.9478033927794693	12.08133971291866	10	53332	3	0.9478033927794693	1.500217485863419
ecg0606	180	28	5	0.41239800380763025	29	55348	3	0.7494562853414528	4.587646802957808	10	54116	3	0.7494562853414528	1.500217485863419
ecg0606	180	28	6	0.37161912192274404	46	59636	4	0.8390604610700304	7.733797303175294	9	57508	4	0.8390604610700304	1.576772509786864
ecg0606	180	28	7	0.3462019585572738	22	58632	3	0.7859939103958242	3.3923444976076556	11	57956	2	0.7859939103958242	1.5776424532405393
ecg0606	180	28	8	0.3420128112887851	1	58828	-2147483648	0.0	0.0	1	58828	-2147483648	0.0	0.0
ecg0606	180	28	9	0.3251477380226978	8	58664	2	0.41235319704219225	1.103088299260548	5	58496	2	0.41235319704219225	0.6307090039147455
ecg0606	180	28	10	0.31278279178383317	2	59060	2	0.14267072640278383	0.15745976511526752	2	59060	2	0.14267072640278383	0.15745976511526752
ecg0606	180	28	12	0.2975471936308842	2	59312	2	0.15745976511526752	0.15745976511526752	2	59312	2	0.15745976511526752	0.15745976511526752
ecg0606	180	30	2	0.6422530239868074	138	54824	7	0.9686820356676816	27.47107438016529	8	46940	7	0.9686820356676816	1.5815571987820791
ecg0606	180	30	3	0.5026465646330891	93	49280	12	0.9943453675511091	21.588516746411482	6	44422	12	0.9943453675511091	2.224010439321444
ecg0606	180	30	4	0.42874949360311987	72	61378	4	0.9404088734232275	11.768595041322314	9	57402	3	0.9404088734232275	1.421922575032623
ecg0606	180	30	5	0.4033537230259358	35	62104	3	0.670726402783819	5.519791213571118	8	60360	3	0.670726402783819	1.1822531535450196
ecg0606	180	30	6	0.36275735667767006	24	61016	2	0.7481513701609396	3.6320139190952587	8	59936	2	0.7481513701609396	1.1056981296215747
ecg0606	180	30	7	0.3373941964356406	17	63476	2	0.7629404088734232	2.5193562418442803	8	62936	2	0.7629404088734232	1.1022183558068726
ecg0606	180	30	8	0.3335634277922021	4	63114	2	0.34797738147020446	0.47237929534580253	4	63114	2	0.34797738147020446	0.47237929534580253
ecg0606	180	30	9	0.31705153574783845	3	62986	2	0.22183558068725534	0.3157894736842105	3	62986	2	0.22183558068725534	0.3157894736842105
ecg0606	180	30	10	0.3041477973247272	2	63428	2	0.15745976511526752	0.15745976511526752	2	63428	2	0.15745976511526752	0.15745976511526752
ecg0606	180	30	12	0.2886261414829872	3	63406	2	0.17659852109612875	0.3157894736842105	3	63406	2	0.17659852109612875	0.3157894736842105
ecg0606	200	2	2	1.1794514572177603	7	120	18	0.9930404523705959	7.5759025663331885	3	90	18	0.9930404523705959	3.7968682035667682
ecg0606	200	2	3	0.677024594291505	1	2	-2147483648	0.0	0.0	1	2	-2147483648	0.0	0.0
ecg0606	200	2	4	0.8240772183256473	7	120	18	0.9930404523705959	7.5759025663331885	3	90	18	0.9930404523705959	3.7968682035667682
ecg0606	200	2	5	0.6749785920745959	5	72	9	1.0	4.476294040887343	3	58	9	1.0	2.682905611135276
ecg0606	200	2	6	0.7229395033541117	7	120	18	0.9930404523705959	7.5759025663331885	3	90	18	0.9930404523705959	3.7968682035667682
ecg0606	200	2	7	0.6647102254875128	6	96	14	0.9991300565463245	3.7785993910395823	3	76	14	0.9991300565463245	2.453675511091779
ecg0606	200	2	8	0.6805478940400298	6	172	28	1.0	7.225315354501958	2	134	28	1.0	3.2440191387559807
ecg0606	200	2	9	0.6539231992845582	9	156	15	1.0	6.632883862548934	4	118	15	1.0	2.5780774249673772
ecg0606	200	2	10	0.6590083162620907	11	254	23	0.9956502827316225	8.147455415398	2	186	23	0.9956502827316225	2.5163114397564157
ecg0606	200	2	12	0.6446783501070201	10	198	20	1.0	8.012179208351457	3	146	20	1.0	3.6341887777294475
ecg0606	200	4	2	1.108941565311723	28	888	10	1.0	9.814267072640279	6	700	10	1.0	2.3479773814702045
ecg0606	200	4	3	0.7529334147020196	13	368	13	1.0	8.425402348847324	4	296	13	1.0	2.1935624184428013
ecg0606	200	4	4	0.7853475107534829	29	948	8	1.0	10.016093953892996	7	756	8	1.0	2.5650282731622442
ecg0606	200	4	5	0.7148362879640612	26	888	14	1.0	10.207046541974771	4	692	14	1.0	1.8795128316659417
ecg0606	200	4	6	0.7038836151192527	38	1344	11	0.9843410178338408	13.53501522401044	6	1072	10	0.9843410178338408	2.2253153545019573
ecg0606	200	4	7	0.6939192942474801	45	1464	9	0.9939103958242714	13.533710308829926	6	1100	9	0.9939103958242714	2.84297520661157
ecg0606	200	4	8	0.670531088747146	53	1832	10	1.0	16.86472379295346	8	1436	10	1.0	2.0935189212701175
ecg0606	200	4	9	0.6738929920779756	57	2116	9	0.9930404523705959	17.09264897781644	6	1620	7	0.9930404523705959	1.993040452370596
ecg0606	200	4	10	0.6565062240619619	58	2144	11	1.0	18.13005654632449	7	1652	11	1.0	2.810787298825576
ecg0606	200	4	12	0.6493883302019644	67	2588	11	0.9952153110047847	19.76511526750761	5	2008	11	0.9952153110047847	2.257503262287951
ecg0606	200	6	2	0.9463838550545434	31	2116	13	1.0	16.294040887342323	4	1714	13	1.0	2.487603305785124
ecg0606	200	6	3	0.7548103913346922	40	2200	14	0.9943453675511091	13.776424532405393	5	1726	11	0.9943453675511091	1.7442366246193997
ecg0606	200	6	4	0.7147212633249498	55	3692	13	0.9986950848194868	20.034362766420184	5	2976	12	0.9986950848194868	2.64723792953458
ecg0606	200	6	5	0.6856299456137842	77	4266	12	1.0	22.85645933014354	6	3364	11	1.0	1.8690735102218357
ecg0606	200	6	6	0.6393011765228005	67	4508	12	0.9991300565463245	20.510656807307527	5	3582	6	0.9991300565463245	1.4884732492387995
ecg0606	200	6	7	0.6414908382921891	104	6162	9	1.0	26.101783384080036	5	4926	9	1.0	1.6220095693779903
ecg0606	200	6	8	0.6167024162643886	93	6074	9	0.9986950848194868	26.287951283166596	6	4906	6	0.9986950848194868	1.615484993475424
ecg0606	200	6	9	0.6157144142295208	115	7340	8	0.9991300565463245	26.214006089604176	6	5944	8	0.9991300565463245	1.5989560678555894
ecg0606	200	6	10	0.6054602606794521	114	7570	8	0.9939103958242714	25.609830361026532	7	6144	8	0.9939103958242714	1.6881252718573292
ecg0606	200	6	12	0.5930893223948539	105	8140	6	0.9934754240974336	25.316659417137885	8	6918	6	0.9934754240974336	1.6772509786863854
ecg0606	200	8	2	0.8690759077435963	65	4648	12	1.0	21.82557633753806	5	3724	12	1.0	1.674641148325359
ecg0606	200	8	3	0.6836465680004912	60	4752	12	1.0	19.10439321444106	5	3872	12	1.0	1.6528925619834711
ecg0606	200	8	4	0.6525454884631492	108	8272	9	1.0	28.98434101783384	7	6576	9	1.0	1.7059591126576772
ecg0606	200	8	5	0.6315037689914551	123	9868	8	0.9960852544584602	28.67290126141801	6	8020	8	0.9960852544584602	1.788168769030013
ecg0606	200	8	6	0.5886475156631196	110	9668	13	0.9995650282731623	29.40452370595911	4	7892	13	0.9995650282731623	1.7359721618094823
ecg0606	200	8	7	0.5764637623021213	130	11196	10	0.9995650282731623	29.827751196172247	7	9196	9	0.9995650282731623	1.6911700739451936
ecg0606	200	8	8	0.5643278990671655	104	11412	10	0.998260113092649	23.67029143105698	6	9648	10	0.998260113092649	1.770334928229665
ecg0606	200	8	9	0.551978808169246	118	12696	8	0.9886907351022184	25.87994780339278	8	10840	8	0.9886907351022184	1.7672901261418008
ecg0606	200	8	10	0.548444994588882	103	13232	8	0.9969551979121357	22.175728577642452	7	11556	8	0.9969551979121357	1.857764245324054
ecg0606	200	8	12	0.5333487034091998	94	13736	5	0.9843410178338408	18.661591996520226	9	12348	4	0.9843410178338408	1.6768160069595477
ecg0606	200	10	2	0.8290729817076594	83	7980	13	1.0	26.768595041322314	5	6532	13	1.0	1.9612875163114398
ecg0606	200	10	3	0.6453718613954549	73	7496	13	0.9960852544584602	26.25967812092214	5	6186	13	0.9960852544584602	2.1987820791648542
ecg0606	200	10	4	0.5969290387648152	111	11788	13	1.0	31.573727707699	6	9808	13	1.0	1.9634623749456286
ecg0606	200	10	5	0.5770032863011988	125	15290	10	1.0	28.806437581557198	6	12716	10	1.0	1.681600695954763
ecg0606	200	10	6	0.5412524622325707	121	14820	8	0.9956502827316225	30.297085689430187	5	12542	8	0.9956502827316225	1.9517181383210092
ecg0606	200	10	7	0.5228152045731114	123	16936	8	0.9778164419312745	27.933449325793823	7	14548	4	0.9778164419312745	1.5063070900391475
ecg0606	200	10	8	0.5136510415739459	99	17714	5	0.9952153110047847	19.568508046976948	8	15622	5	0.9952153110047847	1.5837320574162679
ecg0606	200	10	9	0.49642458790242966	113	18172	7	0.9647672901261418	23.424097433666812	7	15952	6	0.9647672901261418	1.5832970856894302
ecg0606	200	10	10	0.49390924063432695	84	18778	7	0.9417137886037408	17.047411918225315	8	17166	5	0.9417137886037408	1.6720313179643322
ecg0606	200	10	12	0.47878324510427966	69	19294	4	0.9486733362331449	13.438886472379295	8	18006	4	0.9486733362331449	1.6668116572422793
ecg0606	200	12	2	0.797987227319623	92	10656	11	1.0	25.13919095258808	6	8692	11	1.0	1.8916920400173989
ecg0606	200	12	3	0.6270712565494886	88	11560	12	0.994780339277947	26.598086124401913	5	9544	12	0.994780339277947	1.6198347107438016
ecg0606	200	12	4	0.56732037280524	109	15900	11	0.9995650282731623	28.114832535885167	5	13400	11	0.9995650282731623	1.7803392779469334
ecg0606	200	12	5	0.5430012930143792	113	19220	7	0.9921705089169204	25.227490213136146	8	16624	5	0.9921705089169204	1.588951718138321
ecg0606	200	12	6	0.5035131302250078	121	20292	5	0.9952153110047847	25.43018703784254	7	17392	4	0.9952153110047847	1.5863418877772946
ecg0606	200	12	7	0.48230694418459524	113	21716	9	0.9773814702044367	24.956502827316225	5	19000	9	0.9773814702044367	1.4123531970421923
ecg0606	200	12	8	0.4757611294088818	73	22128	5	0.9939103958242714	14.44758590691605	8	20392	5	0.9939103958242714	1.6750761200521966
ecg0606	200	12	9	0.45797859467337404	103	23332	6	0.998260113092649	20.760330578512395	8	20848	6	0.998260113092649	1.6694214876033058
ecg0606	200	12	10	0.454711808117809	55	23004	4	0.9464984775989561	10.531970421922574	9	21800	4	0.9464984775989561	1.7503262287951282
ecg0606	200	12	12	0.43889924139936765	43	23464	3	0.8790778599391039	7.716833405828621	8	22620	3	0.8790778599391039	1.491083079599826
ecg0606	200	14	2	0.7713272689514193	115	15486	11	1.0	30.453675511091777	5	12490	11	1.0	1.61244019138756
ecg0606	200	14	3	0.6091665904178434	108	15828	12	1.0	31.588081774684646	6	13092	12	1.0	2.142235754675946
ecg0606	200	14	4	0.5464029110663081	131	22462	8	1.0	29.88212266202697	9	18954	8	1.0	1.9460635058721183
ecg0606	200	14	5	0.5220905649831612	106	24134	6	0.9673771204871683	22.75772074815137	8	21346	6	0.9673771204871683	1.850369725967812
ecg0606	200	14	6	0.47996681375626526	114	26456	11	0.9995650282731623	24.636798608090473	8	23170	11	0.9995650282731623	2.3762505437146584
ecg0606	200	14	7	0.4573704616731704	95	27392	6	0.9891257068290561	19.0622009569378	7	24796	5	0.9891257068290561	1.5811222270552414
ecg0606	200	14	8	0.44980874529662934	61	27704	5	0.9238799478033928	11.864723792953457	8	26164	4	0.9238799478033928	1.4919530230535014
ecg0606	200	14	9	0.4298585351658193	78	28404	5	0.9934754240974336	14.565463244889083	8	26192	4	0.9934754240974336	1.4897781644193127
ecg0606	200	14	10	0.4244259789581579	42	28324	4	0.9317094388864724	7.89343192692475	9	27314	4	0.9317094388864724	1.752501087429317
ecg0606	200	14	12	0.4079083685706485	29	28460	3	0.9569377990430622	4.992605480643758	9	27844	3	0.9569377990430622	1.4889082209656372
ecg0606	200	16	2	0.7489067872508586	115	18740	10	0.9991300565463245	29.71117877337973	5	15320	9	0.9991300565463245	1.6111352762070466
ecg0606	200	16	3	0.5930093278203601	128	20488	13	0.9960852544584602	34.77555458895172	5	16744	13	0.9960852544584602	1.9665071770334928
ecg0606	200	16	4	0.5282782555554864	93	24328	10	0.9952153110047847	22.09873858199217	8	21764	7	0.9952153110047847	1.7655502392344498
ecg0606	200	16	5	0.5037703575174352	102	31128	7	0.9943453675511091	20.750326228795128	8	27816	7	0.9943453675511091	1.9277946933449326
ecg0606	200	16	6	0.4622485950937947	99	30780	5	0.9826011309264898	19.62026968247064	7	27552	5	0.9826011309264898	1.4071335363201392
ecg0606	200	16	7	0.43809060022573665	81	33472	4	0.9739016963897347	14.909960852544584	8	30836	4	0.9739016963897347	1.4923879947803393
ecg0606	200	16	8	0.43173931172069246	36	31644	3	0.9438886472379295	6.398434101783384	10	30796	3	0.9438886472379295	1.6646367986080906
ecg0606	200	16	9	0.4114994624379186	49	33120	4	0.9030013049151805	8.852544584602	9	31684	3	0.9030013049151805	1.4880382775119618
ecg0606	200	16	10	0.4037539834017533	25	33024	3	0.8755980861244019	4.292301000434971	9	32464	2	0.8755980861244019	1.4027838190517616
ecg0606	200	16	12	0.38721477751769073	12	32832	2	0.6024358416702914	1.9251848629839061	7	32672	2	0.6024358416702914	1.0508916920400173
ecg0606	200	18	2	0.7286913039072722	121	23330	6	0.9969551979121357	27.94954327968682	8	19074	6	0.9969551979121357	1.7755545889517181
ecg0606	200	18	3	0.5772230360294044	131	25326	10	0.9986950848194868	31.351457155284905	6	20920	10	0.9986950848194868	1.5972161809482384
ecg0606	200	18	4	0.5108303743834135	107	32310	7	0.9939103958242714	22.911265767725098	8	28480	7	0.9939103958242714	1.668986515876468
ecg0606	200	18	5	0.48698712281715384	85	35214	5	0.9760765550239234	17.304915180513266	8	32282	5	0.9760765550239234	1.7568508046976947
ecg0606	200	18	6	0.44496807885739914	75	36220	5	0.9952153110047847	15.020443671161374	8	33592	5	0.9952153110047847	1.667246628969117
ecg0606	200	18	7	0.42006897430369694	64	37676	4	0.943018703784254	12.2983906046107	8	35354	2	0.943018703784254	1.2253153545019573
ecg0606	200	18	8	0.41461233962071337	19	36756	2	0.8046976946498478	3.1539799913005653	9	36374	2	0.8046976946498478	1.4010439321444106
ecg0606	200	18	9	0.39492748303492065	33	37334	3	0.7981731187472815	5.690300130491518	8	36362	2	0.7981731187472815	1.2248803827751196
ecg0606	200	18	10	0.38575578755691803	24	37632	2	0.8486298390604611	4.028273162244454	7	36948	2	0.8486298390604611	1.0504567203131796
ecg0606	200	18	12	0.36996718651601745	9	37454	2	0.3853849499782514	1.3993040452370595	5	37310	2	0.3853849499782514	0.6998695084819486
ecg0606	200	20	2	0.7113825723310808	117	26924	9	0.9995650282731623	26.727707698999566	7	22488	9	0.9995650282731623	1.8581992170508916
ecg0606	200	20	3	0.5634020439214407	111	28772	9	0.9986950848194868	26.417572857764245	8	24708	5	0.9986950848194868	1.8712483688560244
ecg0606	200	20	4	0.4956316204074165	91	36240	5	0.9960852544584602	18.301435406698566	9	32868	5	0.9960852544584602	1.941278816876903
ecg0606	200	20	5	0.47167161797874274	70	39860	5	0.9573727707698999	13.428012179208352	8	37112	5	0.9573727707698999	1.578512396694215
ecg0606	200	20	6	0.42993081013955936	58	40900	4	0.9573727707698999	11.14528055676381	9	38788	3	0.9573727707698999	1.4906481078729883
ecg0606	200	20	7	0.4049374761463823	49	42460	4	0.9669421487603306	9.020443671161374	10	40656	3	0.9669421487603306	1.6615919965202262
ecg0606	200	20	8	0.399454037860582	13	41156	3	0.6272292301000435	2.189212701174424	7	40912	3	0.6272292301000435	1.1383210091344063
ecg0606	200	20	9	0.3799965670871208	25	42096	2	0.7720748151370161	4.203566768160069	8	41316	2	0.7720748151370161	1.2253153545019573
ecg0606	200	20	10	0.36997413487587305	11	41960	2	0.450195737277077	1.7511961722488039	6	41740	2	0.450195737277077	0.8760330578512396
ecg0606	200	20	12	0.3550573006809256	5	41772	2	0.4049586776859504	0.6994345367551109	5	41772	2	0.4049586776859504	0.6994345367551109
ecg0606	200	22	2	0.6969934948984986	126	33836	9	0.9969551979121357	29.557198782079166	6	28384	9	0.9969551979121357	2.0313179643323185
ecg0606	200	22	3	0.5512168938238104	116	34190	8	0.9704219225750326	25.395824271422356	6	29322	8	0.9704219225750326	1.8599391039582427
ecg0606	200	22	4	0.4823859137441775	94	43602	5	0.980426272292301	18.979121357111786	8	39650	5	0.980426272292301	1.578077424967377
ecg0606	200	22	5	0.4583123529693213	57	44194	3	0.9095258808177469	10.171813832100913	10	41872	2	0.9095258808177469	1.5759025663331883
ecg0606	200	22	6	0.4167011594771089	48	45862	4	0.9117007394519356	8.933014354066986	8	44002	4	0.9117007394519356	1.4880382775119618
ecg0606	200	22	7	0.3915586939403055	34	46016	4	0.8938668986515876	6.043497172683775	10	44820	2	0.8938668986515876	1.5754675946063506
ecg0606	200	22	8	0.3869284492204905	7	45448	2	0.47107438016528924	1.051761635493693	6	45404	2	0.47107438016528924	0.8769030013049152
ecg0606	200	22	9	0.3672873187707136	14	46072	2	0.5911265767725098	2.2749021313614617	7	45742	2	0.5911265767725098	1.050021748586342
ecg0606	200	22	10	0.35712280375937244	6	45858	2	0.5376250543714659	0.8769030013049152	5	45814	2	0.5376250543714659	0.7020443671161375
ecg0606	200	22	12	0.34191727753868195	3	46018	2	0.32753371030882994	0.34971726837755546	3	46018	2	0.32753371030882994	0.34971726837755546
ecg0606	200	24	2	0.6842345871099533	122	36832	8	0.9943453675511091	28.646802957807743	8	31472	8	0.9943453675511091	2.291866028708134
ecg0606	200	24	3	0.5404906185403686	112	40824	11	1.0	25.56807307525011	6	35428	11	1.0	1.6733362331448456
ecg0606	200	24	4	0.4704260966184333	70	45184	4	0.9504132231404959	13.524140930839495	8	42088	4	0.9504132231404959	1.404088734232275
ecg0606	200	24	5	0.44681293383033993	35	47964	3	0.9108307959982601	6.052631578947368	8	46424	2	0.9108307959982601	1.2248803827751196
ecg0606	200	24	6	0.40489117495836763	33	49648	5	0.9204001739886908	6.132231404958677	9	48412	5	0.9204001739886908	1.7516311439756416
ecg0606	200	24	7	0.37947950668650876	36	48892	3	0.9491083079599826	6.494997825141366	9	47324	3	0.9491083079599826	1.4889082209656372
ecg0606	200	24	8	0.3751444480078813	3	49648	2	0.3249238799478034	0.34971726837755546	3	49648	2	0.3249238799478034	0.34971726837755546
ecg0606	200	24	9	0.35594050983402614	8	50040	2	0.5915615484993475	1.2248803827751196	7	49992	2	0.5915615484993475	1.050021748586342
ecg0606	200	24	10	0.34516473698450645	5	50064	2	0.33405828621139627	0.6994345367551109	4	50016	2	0.33405828621139627	0.5245759025663332
ecg0606	200	24	12	0.33024910856254996	1	50280	-2147483648	0.0	0.0	1	50280	-2147483648	0.0	0.0
ecg0606	200	26	2	0.672850764037138	129	42960	7	0.9969551979121357	27.256633318834275	7	36402	6	0.9969551979121357	1.5832970856894302
ecg0606	200	26	3	0.5307853132405393	90	42740	5	0.9921705089169204	17.591561548499346	9	38244	3	0.9921705089169204	1.5828621139625925
ecg0606	200	26	4	0.45973381165711835	54	51126	4	0.960852544584602	9.907785993910396	10	48570	3	0.960852544584602	1.663766855154415
ecg0606	200	26	5	0.43580917440051553	36	51248	3	0.7912135711178774	6.755980861244019	7	49772	3	0.7912135711178774	1.2266202696824706
ecg0606	200	26	6	0.3940747556843529	22	52402	2	0.8508046976946498	3.677685950413223	9	51726	2	0.8508046976946498	1.402348847324924
ecg0606	200	26	7	0.3685666900903793	26	54550	2	0.8668986515876468	4.376250543714659	11	53666	2	0.8668986515876468	1.7485863418877774
ecg0606	200	26	8	0.36461764030235	5	53280	2	0.4171378860374076	0.7003044802087864	5	53280	2	0.4171378860374076	0.7003044802087864
ecg0606	200	26	9	0.34573690256736794	5	54164	2	0.38581992170508916	0.6994345367551109	5	54164	2	0.38581992170508916	0.6994345367551109
ecg0606	200	26	10	0.33463949233204454	3	54174	2	0.17746846454980425	0.34971726837755546	3	54174	2	0.17746846454980425	0.34971726837755546
ecg0606	200	26	12	0.3196752392040115	2	54478	2	0.17485863418877773	0.17485863418877773	2	54478	2	0.17485863418877773	0.17485863418877773
ecg0606	200	28	2	0.6627549021680503	110	45044	5	0.9891257068290561	22.7016093953893	8	38864	5	0.9891257068290561	1.8468899521531101
ecg0606	200	28	3	0.5219934186635456	94	47296	9	0.9991300565463245	20.589821661591998	8	42292	9	0.9991300565463245	2.115267507612005
ecg0606	200	28	4	0.45022662140017067	44	53276	3	0.9743366681165724	7.804697694649848	10	51284	2	0.9743366681165724	1.5776424532405393
ecg0606	200	28	5	0.4263046834622856	22	56932	3	0.7055241409308395	3.8538494997825143	8	56032	3	0.7055241409308395	1.3127446715963462
ecg0606	200	28	6	0.38445582331182276	17	56204	2	0.667246628969117	2.802087864288821	9	55700	2	0.667246628969117	1.4001739886907352
ecg0606	200	28	7	0.3587813524652058	13	56916	2	0.574597651152675	2.10656807307525	7	56496	2	0.574597651152675	1.0543714658547194
ecg0606	200	28	8	0.3550705008815135	2	57884	2	0.17572857764245325	0.17572857764245325	2	57884	2	0.17572857764245325	0.17572857764245325
ecg0606	200	28	9	0.3363573329795515	5	58116	2	0.23401478903871248	0.702914310569813	3	57948	2	0.23401478903871248	0.3514571552849065
ecg0606	200	28	10	0.32507940454717543	2	58668	2	0.15006524575902566	0.17485863418877773	2	58668	2	0.15006524575902566	0.17485863418877773
ecg0606	200	28	12	0.3102658759342376	1	58660	-2147483648	0.0	0.0	1	58660	-2147483648	0.0	0.0
ecg0606	200	30	2	0.6537160349782777	114	52224	7	0.983906046107003	22.90865593736407	8	45282	5	0.983906046107003	1.5850369725967812
ecg0606	200	30	3	0.5140198485540358	79	50392	6	0.9573727707698999	15.792083514571553	8	45736	5	0.9573727707698999	1.6798608090474119
ecg0606	200	30	4	0.44151448796767323	38	57830	3	0.937799043062201	6.749456285341453	10	56000	3	0.937799043062201	1.7520661157024793
ecg0606	200	30	5	0.4177326794806342	18	60256	3	0.7229230100043497	3.1518051326663765	9	59742	3	0.7229230100043497	1.5754675946063506
ecg0606	200	30	6	0.37582796302686705	17	60580	2	0.5793823401478904	2.8029578077424966	6	59800	2	0.5793823401478904	0.8751631143975641
ecg0606	200	30	7	0.35006559580335295	12	61392	2	0.7177033492822966	1.9243149195302305	10	61272	2	0.7177033492822966	1.5745976511526751
ecg0606	200	30	8	0.34640122452023203	2	62498	2	0.15137016093953892	0.17485863418877773	2	62498	2	0.15137016093953892	0.17485863418877773
ecg0606	200	30	9	0.32781557074108214	7	62312	2	0.45846020008699434	1.0491518051326665	5	62192	2	0.45846020008699434	0.6994345367551109
ecg0606	200	30	10	0.3164026516526631	1	62790	-2147483648	0.0	0.0	1	62790	-2147483648	0.0	0.0
ecg0606	200	30	12	0.3016216636549858	1	62880	-2147483648	0.0	0.0	1	62880	-2147483648	0.0	0.0
ecg0606	220	2	2	1.175852508617921	6	154	29	1.0	9.02131361461505	2	122	29	1.0	3.6668116572422793
ecg0606	220	2	3	0.678712979279349	1	2	-2147483648	0.0	0.0	1	2	-2147483648	0.0	0.0
ecg0606	220	2	4	0.820522751112188	6	154	29	1.0	9.02131361461505	2	122	29	1.0	3.6668116572422793
ecg0606	220	2	5	0.6764964386638769	5	60	7	0.8777729447585907	4.081774684645498	3	46	7	0.8777729447585907	2.1270117442366248
ecg0606	220	2	6	0.7192832716624651	6	154	29	1.0	9.02131361461505	2	122	29	1.0	3.6668116572422793
ecg0606	220	2	7	0.6664261966199514	7	114	10	1.0	5.033927794693345	3	88	10	1.0	1.6093953892996955
ecg0606	220	2	8	0.6770791515491508	6	162	29	1.0	7.938668986515877	2	130	29	1.0	3.6359286646367988
ecg0606	220	2	9	0.6554996692108698	8	168	17	1.0	7.268812527185733	4	126	17	1.0	3.047411918225315
ecg0606	220	2	10	0.6556394388201868	9	224	24	1.0	7.595911265767725	2	170	24	1.0	2.8851674641148324
ecg0606	220	2	12	0.6427827965242424	13	240	17	1.0	8.367551109177903	3	174	17	1.0	2.2270552414093086
ecg0606	220	4	2	1.1291842383856836	30	1048	10	0.9978251413658112	12.816441931274467	5	804	10	0.9978251413658112	2.571117877337973
ecg0606	220	4	3	0.744401938528246	8	232	8	1.0	4.249673771204872	4	192	8	1.0	2.325793823401479
ecg0606	220	4	4	0.7898474376578688	28	1064	12	1.0	12.20356676816007	5	836	10	1.0	1.7768595041322315
ecg0606	220	4	5	0.7167319354375141	26	952	13	0.9991300565463245	11.558938668986515	5	748	8	0.9991300565463245	1.928664636798608
ecg0606	220	4	6	0.7115296368787746	35	1284	10	0.9978251413658112	14.157894736842104	4	1000	10	0.9978251413658112	2.2962157459765113
ecg0606	220	4	7	0.6903653664138074	44	1444	9	0.996520226185298	15.538060026098304	5	1084	9	0.996520226185298	2.320139190952588
ecg0606	220	4	8	0.6804639495103119	51	1872	9	1.0	16.454545454545453	7	1440	9	1.0	2.410613310134841
ecg0606	220	4	9	0.6712737991362583	50	1868	10	0.9943453675511091	16.154849934754242	5	1444	10	0.9943453675511091	1.93214441061331
ecg0606	220	4	10	0.6639940227645821	61	2208	12	1.0	19.47107438016529	6	1696	12	1.0	2.2231404958677685
ecg0606	220	4	12	0.6531273759129299	66	2544	10	0.9991300565463245	20.241409308394953	6	1972	10	0.9991300565463245	2.777294475859069
ecg0606	220	6	2	0.9849261107659455	43	2114	13	1.0	15.10656807307525	5	1668	10	1.0	2.2109612875163114
ecg0606	220	6	3	0.7699133157737209	41	2084	15	0.9986950848194868	15.54284471509352	3	1624	15	0.9986950848194868	1.7938234014789038
ecg0606	220	6	4	0.7308451350661658	53	3274	13	1.0	19.36189647672901	4	2596	11	1.0	1.7585906916050458
ecg0606	220	6	5	0.6988519529729331	57	3390	13	0.998260113092649	19.140930839495432	5	2738	13	0.998260113092649	2.4806437581557197
ecg0606	220	6	6	0.6544140536152339	78	4212	13	1.0	23.170943888647237	5	3288	13	1.0	1.9408438451500651
ecg0606	220	6	7	0.6641664732947965	88	5628	8	0.9969551979121357	22.84471509351892	5	4526	8	0.9969551979121357	1.9708568943018703
ecg0606	220	6	8	0.6325474282350938	80	5222	12	1.0	22.52936059156155	6	4208	12	1.0	1.9686820356676815
ecg0606	220	6	9	0.6352847500074384	88	6458	7	1.0	20.524575902566333	7	5314	7	1.0	1.663766855154415
ecg0606	220	6	10	0.6231369194720083	84	6510	11	0.9895606785558939	22.04697694649848	5	5434	11	0.9895606785558939	1.8803827751196172
ecg0606	220	6	12	0.6128891474425969	92	7452	11	0.9991300565463245	22.432361896476728	7	6262	6	0.9991300565463245	1.9565028273162244
ecg0606	220	8	2	0.888735375652761	63	4244	12	0.998260113092649	22.859069160504568	5	3368	12	0.998260113092649	1.8625489343192692
ecg0606	220	8	3	0.7079537282372584	49	4244	12	0.9986950848194868	20.510656807307527	4	3504	10	0.9986950848194868	2.0039147455415396
ecg0606	220	8	4	0.6814835416006156	94	7488	9	1.0	29.299260548064375	7	6056	9	1.0	2.2709873858199217
ecg0606	220	8	5	0.6511296869478611	110	9024	10	0.998260113092649	27.774249673771205	7	7320	7	0.998260113092649	1.7564158329708568
ecg0606	220	8	6	0.6053554654791322	92	8676	12	1.0	28.877337973031754	4	7200	12	1.0	1.7642453240539364
ecg0606	220	8	7	0.6000672628176096	114	10792	8	0.9904306220095693	28.370595911265767	6	8996	8	0.9904306220095693	1.7664201826881252
ecg0606	220	8	8	0.5832070810550959	119	11128	7	0.9978251413658112	29.83732057416268	7	9256	4	0.9978251413658112	1.457155284906481
ecg0606	220	8	9	0.5749262179017971	116	12152	5	0.9969551979121357	26.320574162679424	8	10348	4	0.9969551979121357	1.6489778164419313
ecg0606	220	8	10	0.5684616557532456	94	12108	4	0.9656372335798173	20.884297520661157	8	10648	4	0.9656372335798173	1.6589821661591997
ecg0606	220	8	12	0.5544662952419187	87	13512	5	0.9721618094823836	18.30056546324489	8	12072	5	0.9721618094823836	1.6433231839930404
ecg0606	220	10	2	0.8461146076766812	82	7380	12	0.9995650282731623	27.66115702479339	6	5962	8	0.9995650282731623	2.5667681600695955
ecg0606	220	10	3	0.6578933551334816	65	7128	13	0.9956502827316225	29.09134406263593	3	5898	13	0.9956502827316225	1.5080469769464986
