dataset	window	paa	alphabet	approximation	rules	gr_size	frequency	cover	coverage	pruned_rules	pruned_gr_size	pruned_frequency	pruned_cover	pruned_coverage
ecg0606	30	2	2	0.7195278562353332	7	116	47	0.9773814702044367	3.9795563288386253	5	100	47	0.9773814702044367	2.3392779469334495
ecg0606	30	2	3	0.7516777988579488	8	150	46	0.9921705089169204	7.338842975206612	2	110	23	0.9921705089169204	1.2274902131361463
ecg0606	30	2	4	0.8010465957082731	13	264	48	0.9934754240974336	8.092214006089604	4	206	46	0.9934754240974336	2.6855154414963027
ecg0606	30	2	5	0.7469537986019892	14	200	47	0.9917355371900827	8.96520226185298	4	132	47	0.9917355371900827	2.6237494562853416
ecg0606	30	2	6	0.6481523256122309	12	452	47	0.9934754240974336	8.16093953892997	3	390	46	0.9934754240974336	2.0756850804697695
ecg0606	30	2	7	0.6113048617511663	12	450	47	0.9939103958242714	10.972161809482383	3	390	46	0.9939103958242714	2.0556763810352328
ecg0606	30	2	8	0.6125101647547112	18	358	48	0.9939103958242714	11.059591126576773	4	266	46	0.9939103958242714	2.02131361461505
ecg0606	30	2	9	0.6249020633072238	17	628	47	0.996520226185298	12.440626359286647	3	536	46	0.996520226185298	1.7359721618094823
ecg0606	30	2	10	0.6191473867710593	29	874	47	0.9973901696389734	11.753371030882992	5	708	44	0.9973901696389734	2.1987820791648542
ecg0606	30	2	12	0.5861398227828462	27	650	48	0.9943453675511091	12.71509351892127	5	508	46	0.9943453675511091	2.751631143975642
ecg0606	30	4	2	0.6532457516374732	28	768	45	0.9960852544584602	8.863418877772945	7	600	43	0.9960852544584602	2.9665071770334928
ecg0606	30	4	3	0.5633577219468855	55	2228	45	0.9986950848194868	12.52892561983471	6	1836	45	0.9986950848194868	1.93605915615485
ecg0606	30	4	4	0.5057869370672614	103	3768	32	0.9995650282731623	11.846020008699435	9	3016	32	0.9995650282731623	2.1435406698564594
ecg0606	30	4	5	0.45080206013721325	127	4232	28	1.0	12.521096128751632	27	3432	28	1.0	2.517616354936929
ecg0606	30	4	6	0.42361284190134374	146	5424	40	1.0	14.791213571117877	21	4424	40	1.0	1.7746846454980427
ecg0606	30	4	7	0.40908646720562836	173	6400	41	0.9995650282731623	15.034362766420182	6	5064	41	0.9995650282731623	1.667246628969117
ecg0606	30	4	8	0.400789677464637	202	6628	26	0.998260113092649	14.878207916485428	18	5156	26	0.998260113092649	2.101348412353197
ecg0606	30	4	9	0.3948305001041227	207	7288	26	1.0	15.581992170508917	34	5904	26	1.0	1.9491083079599827
ecg0606	30	4	10	0.3913889504652095	243	7688	28	0.9995650282731623	14.49586776859504	17	5880	28	0.9995650282731623	1.9099608525445846
ecg0606	30	4	12	0.3828510286378606	259	8528	19	1.0	14.388864723792954	39	6768	19	1.0	1.8321009134406263
ecg0606	30	6	2	0.58152924067743	42	2324	45	0.9969551979121357	10.14354066985646	6	1982	45	0.9969551979121357	2.2140060896041756
ecg0606	30	6	3	0.4889239637595037	108	5810	30	0.9991300565463245	12.417572857764245	8	4852	30	0.9991300565463245	1.7424967377120488
ecg0606	30	6	4	0.43890624291427355	155	7748	22	0.9960852544584602	12.064375815571989	14	6338	21	0.9960852544584602	1.6485428447150936
ecg0606	30	6	5	0.3951811538791232	181	9470	25	0.9995650282731623	13.009134406263593	14	7730	23	0.9995650282731623	1.60852544584602
ecg0606	30	6	6	0.36534844780521786	219	10756	15	0.9995650282731623	13.142670726402784	21	8698	15	0.9995650282731623	1.6620269682470639
ecg0606	30	6	7	0.33863498527741476	213	10952	18	0.996520226185298	12.712918660287082	20	8952	18	0.996520226185298	1.7968682035667682
ecg0606	30	6	8	0.31224361393868366	228	11790	21	0.9930404523705959	13.13962592431492	20	9616	21	0.9930404523705959	1.7442366246193997
ecg0606	30	6	9	0.29633569269416254	217	12174	25	0.9865158764680296	12.268377555458896	23	10134	25	0.9865158764680296	1.7085689430187039
ecg0606	30	6	10	0.2885494383623323	242	12774	16	0.9921705089169204	11.62983906046107	30	10542	16	0.9921705089169204	1.8538494997825141
ecg0606	30	6	12	0.27634402526087437	217	13246	14	0.9778164419312745	9.990430622009569	33	11280	13	0.9778164419312745	1.813397129186603
ecg0606	30	8	2	0.5479056522452603	65	4832	33	0.9973901696389734	10.60069595476294	6	4156	33	0.9973901696389734	1.784688995215311
ecg0606	30	8	3	0.4539266887227541	139	9140	31	1.0	12.503697259678122	26	7824	31	1.0	1.8982166159199652
ecg0606	30	8	4	0.3985538350895611	185	11948	22	1.0	11.578077424967377	33	10088	22	1.0	1.7929534580252284
ecg0606	30	8	5	0.35603369010537456	197	13844	19	0.9956502827316225	11.668986515876467	22	11620	19	0.9956502827316225	1.8216615919965202
ecg0606	30	8	6	0.3269866129209489	210	15164	28	0.9956502827316225	12.39930404523706	22	12768	28	0.9956502827316225	1.8977816441931274
ecg0606	30	8	7	0.30719076246610305	219	16420	12	0.9926054806437582	10.612005219660722	32	13940	12	0.9926054806437582	1.612005219660722
ecg0606	30	8	8	0.28735205218815796	213	16376	13	0.9808612440191388	9.760330578512397	35	13988	12	0.9808612440191388	1.903871248368856
ecg0606	30	8	9	0.2706572012607384	209	17320	13	0.9760765550239234	9.116137451065681	37	15008	13	0.9760765550239234	1.5815571987820791
ecg0606	30	8	10	0.2566279490947155	223	17796	12	0.9638973466724663	8.946933449325794	39	15292	12	0.9638973466724663	1.6372335798173119
ecg0606	30	8	12	0.23562434348476854	195	17784	10	0.9290996085254458	7.394954327968682	36	15608	9	0.9290996085254458	1.546324488908221
ecg0606	30	10	2	0.5182003137079477	90	7914	37	0.9978251413658112	12.742061765985211	7	6812	37	0.9978251413658112	1.8938668986515876
ecg0606	30	10	3	0.42212885805226025	177	13328	25	0.9943453675511091	13.371030882992606	15	11012	25	0.9943453675511091	2.005219660722053
ecg0606	30	10	4	0.36689812296171104	202	17012	24	0.9991300565463245	11.381035232709873	21	14184	24	0.9991300565463245	1.642453240539365
ecg0606	30	10	5	0.3203807337855225	195	18394	15	0.9891257068290561	10.80426272292301	24	15724	15	0.9891257068290561	1.7612005219660722
ecg0606	30	10	6	0.2930267474446262	209	20462	14	0.9904306220095693	9.340582862113962	33	17614	14	0.9904306220095693	1.6789908655937364
ecg0606	30	10	7	0.2722502607105169	223	21248	14	0.9765115267507612	9.919530230535015	33	18174	14	0.9765115267507612	1.8377555458895172
ecg0606	30	10	8	0.2522115596946744	190	21422	18	0.9382340147890387	8.02131361461505	33	18822	18	0.9382340147890387	1.6468029578077426
ecg0606	30	10	9	0.23732372177506583	192	22288	10	0.9138755980861244	7.893866898651588	38	19784	10	0.9138755980861244	1.560678555893867
ecg0606	30	10	10	0.22587434522137567	155	21830	10	0.8964767290126142	6.167899086559373	36	19870	10	0.8964767290126142	1.5297955632883862
ecg0606	30	10	12	0.2086076974115291	120	22224	9	0.8490648107872988	4.29447585906916	40	20840	9	0.8490648107872988	1.3653762505437146
ecg0606	30	12	2	0.509830728315587	104	10820	36	0.9978251413658112	12.806002609830362	6	9316	36	0.9978251413658112	1.781209221400609
ecg0606	30	12	3	0.41382773457348493	198	18680	20	0.9995650282731623	13.140495867768594	18	15656	20	0.9995650282731623	1.5967812092214007
ecg0606	30	12	4	0.3583136956906209	216	22028	15	0.9891257068290561	11.324923879947804	25	18700	15	0.9891257068290561	1.6472379295345803
ecg0606	30	12	5	0.31388885529972765	207	24108	15	0.9773814702044367	10.305350152240104	29	20756	15	0.9773814702044367	1.7285776424532406
ecg0606	30	12	6	0.2836074308000678	208	25168	12	0.966072205306655	9.214876033057852	33	21944	12	0.966072205306655	1.674641148325359
ecg0606	30	12	7	0.26252040948493066	186	25748	12	0.9486733362331449	7.676816006959547	36	22868	12	0.9486733362331449	1.630274032187908
ecg0606	30	12	8	0.2418652107928494	168	26076	12	0.9025663331883428	6.631143975641583	38	23572	12	0.9025663331883428	1.6028708133971292
ecg0606	30	12	9	0.22600987676696044	165	26408	11	0.9330143540669856	7.230969986950848	33	24016	11	0.9330143540669856	1.5650282731622445
ecg0606	30	12	10	0.21542004426277117	146	26520	10	0.8460200086994345	5.597216180948238	31	24368	10	0.8460200086994345	1.4071335363201392
ecg0606	30	12	12	0.19889368579126454	108	26452	8	0.7712048716833406	3.923879947803393	35	24980	8	0.7712048716833406	1.2966507177033493
ecg0606	30	14	2	0.4951205452362449	132	12754	34	0.9986950848194868	13.099608525445847	10	10658	34	0.9986950848194868	2.006959547629404
ecg0606	30	14	3	0.3984943084124864	216	22626	22	0.9969551979121357	13.334493257938234	23	18802	22	0.9969551979121357	1.900391474554154
ecg0606	30	14	4	0.34310647836660274	214	26556	14	0.9952153110047847	9.586776859504132	28	22598	14	0.9952153110047847	1.8481948673336233
ecg0606	30	14	5	0.29804127504699973	201	29062	15	0.9586776859504132	9.420617659852109	26	25352	15	0.9586776859504132	1.4941278816876904
ecg0606	30	14	6	0.2699379326058413	194	30758	14	0.9391039582427142	7.775989560678556	35	27266	11	0.9391039582427142	1.4832535885167464
ecg0606	30	14	7	0.24810115047066036	142	29106	12	0.9204001739886908	6.355371900826446	31	26658	12	0.9204001739886908	1.5097868638538494
ecg0606	30	14	8	0.22784663389520807	136	29748	12	0.8821226620269682	5.6163549369291	37	27586	12	0.8821226620269682	1.5132666376685515
ecg0606	30	14	9	0.21137394573831308	143	30998	11	0.8751631143975641	5.708568943018704	36	28752	11	0.8751631143975641	1.5245759025663332
ecg0606	30	14	10	0.19959496321961198	122	30920	10	0.8347107438016529	4.578077424967377	36	29032	10	0.8347107438016529	1.4980426272292302
ecg0606	30	14	12	0.18307847728637783	90	31226	5	0.727707698999565	2.9121357111787733	36	29974	5	0.727707698999565	1.184862983906046
ecg0606	30	16	2	0.48645341507001844	142	17824	34	0.9986950848194868	14.547629404088735	10	15172	34	0.9986950848194868	1.5898216615919964
ecg0606	30	16	3	0.38958895252221587	223	29092	17	0.9913005654632449	12.583732057416269	21	24392	17	0.9913005654632449	1.7538060026098303
ecg0606	30	16	4	0.3339268532164785	196	31680	13	0.9795563288386255	8.87385819921705	32	27572	13	0.9795563288386255	1.6998695084819486
ecg0606	30	16	5	0.2888095016613864	195	34112	15	0.955632883862549	8.692040017398869	30	30104	15	0.955632883862549	1.5680730752501086
ecg0606	30	16	6	0.25988135273553026	158	34040	13	0.9103958242714224	7.046107003044802	36	31180	13	0.9103958242714224	1.5993910395824271
ecg0606	30	16	7	0.2394707036014158	144	35084	9	0.8725532840365376	5.6481078729882555	34	32296	9	0.8725532840365376	1.3105698129621575
ecg0606	30	16	8	0.218965864898565	118	34416	10	0.781209221400609	4.6481078729882555	32	32312	10	0.781209221400609	1.2949108307959982
ecg0606	30	16	9	0.20298940152401623	114	34652	8	0.7742496737712049	4.33144845585037	39	32804	8	0.7742496737712049	1.384515006524576
ecg0606	30	16	10	0.1913925103737466	104	35956	7	0.7198782079164854	3.4871683340582864	34	34160	7	0.7198782079164854	1.140495867768595
ecg0606	30	16	12	0.17325966785530658	80	35812	7	0.6916050456720313	2.699434536755111	30	34476	7	0.6916050456720313	0.9899956502827316
ecg0606	30	18	2	0.4777497676661175	162	22396	34	0.9991300565463245	15.3410178338408	12	19124	33	0.9991300565463245	1.8055676381035233
ecg0606	30	18	3	0.3804192799861367	242	33436	15	0.9986950848194868	12.1935624184428	24	27926	15	0.9986950848194868	1.6481078729882557
ecg0606	30	18	4	0.324373974597513	191	36234	13	0.9665071770334929	8.793823401478903	33	32016	13	0.9665071770334929	1.7264027838190517
ecg0606	30	18	5	0.27941417101533506	160	38226	9	0.939538929969552	6.563723357981731	38	34884	9	0.939538929969552	1.4745541539799913
ecg0606	30	18	6	0.25038002597191955	148	38672	11	0.9025663331883428	6.313179643323184	38	35748	11	0.9025663331883428	1.6180948238364505
ecg0606	30	18	7	0.2290814041423079	133	39330	7	0.8542844715093519	5.053501522401044	40	36780	6	0.8542844715093519	1.439321444106133
ecg0606	30	18	8	0.20887699880391378	98	39052	9	0.7816441931274467	3.7037842540234887	35	37232	7	0.7816441931274467	1.2996955197912137
ecg0606	30	18	9	0.19283224697959417	108	39510	9	0.7803392779469335	3.9508481948673335	34	37462	7	0.7803392779469335	1.2931709438886472
ecg0606	30	18	10	0.1810967497942615	86	39814	6	0.6955197912135711	2.67246628969117	31	38156	6	0.6955197912135711	0.964332318399304
ecg0606	30	18	12	0.1639983835877425	65	40146	5	0.6267942583732058	2.0574162679425836	34	39100	4	0.6267942583732058	1.0269682470639407
ecg0606	30	20	2	0.4822556773187344	152	24896	34	0.9978251413658112	16.274032187907785	11	21384	33	0.9978251413658112	1.8512396694214877
ecg0606	30	20	3	0.38455925737618724	240	38192	21	0.9939103958242714	12.676816006959548	28	32336	21	0.9939103958242714	1.788603740756851
ecg0606	30	20	4	0.3284517486291774	186	41144	13	0.9634623749456286	8.26141800782949	37	36704	13	0.9634623749456286	1.749021313614615
ecg0606	30	20	5	0.2828844827238923	145	42228	11	0.925184862983906	6.3166594171378865	39	38932	11	0.925184862983906	1.6346237494562854
ecg0606	30	20	6	0.25443220923541443	154	44032	8	0.8651587646802957	5.770769899956503	40	40624	8	0.8651587646802957	1.468029578077425
ecg0606	30	20	7	0.2330482995390906	123	43720	9	0.8038277511961722	4.679425837320574	38	41168	5	0.8038277511961722	1.2905611135276207
ecg0606	30	20	8	0.2127819761526893	104	43916	9	0.7268377555458895	3.80817746846455	36	41820	8	0.7268377555458895	1.2505437146585472
ecg0606	30	20	9	0.19720821518917192	102	45144	9	0.665506742061766	3.5467594606350588	31	42960	9	0.665506742061766	1.0326228795128316
ecg0606	30	20	10	0.1855328683256584	58	43876	5	0.6311439756415833	1.8990865593736408	31	42988	5	0.6311439756415833	0.9782514136581122
ecg0606	30	20	12	0.16847476230330488	51	44792	4	0.5128316659417138	1.5850369725967812	25	43880	4	0.5128316659417138	0.7646802957807742
ecg0606	30	22	2	0.4703303185904283	177	32234	34	0.9991300565463245	16.365376250543715	8	27660	34	0.9991300565463245	1.7107438016528926
ecg0606	30	22	3	0.37274739440595817	246	43888	13	0.9939103958242714	12.160069595476294	26	36980	12	0.9939103958242714	1.754240974336668
ecg0606	30	22	4	0.3166030294756859	178	45364	10	0.9534580252283602	7.418442801217921	34	40504	10	0.9534580252283602	1.6620269682470639
ecg0606	30	22	5	0.27134113325425263	148	47702	11	0.8660287081339713	5.843410178338408	36	43998	11	0.8660287081339713	1.4367116137451066
ecg0606	30	22	6	0.24276543267829725	141	48554	8	0.8481948673336233	5.033927794693345	40	45154	8	0.8481948673336233	1.3140495867768596
ecg0606	30	22	7	0.2216224614173577	114	49386	6	0.7411918225315355	3.9095258808177467	38	46726	5	0.7411918225315355	1.1344062635928664
ecg0606	30	22	8	0.20124910675723795	89	48644	7	0.6611570247933884	3.03871248368856	38	46958	5	0.6611570247933884	1.2301000434971727
ecg0606	30	22	9	0.18510008775425973	91	49102	7	0.69377990430622	3.044802087864289	37	47284	7	0.69377990430622	1.1552849064810786
ecg0606	30	22	10	0.17342858416343077	52	48666	5	0.56589821661592	1.6076555023923444	28	47790	4	0.56589821661592	0.8399304045237059
ecg0606	30	22	12	0.15571600947722752	51	48588	4	0.5384949978251413	1.484123531970422	30	47790	4	0.5384949978251413	0.843410178338408
ecg0606	30	24	2	0.4689105748281904	172	34656	34	0.9991300565463245	17.047846889952154	8	29724	33	0.9991300565463245	1.7050891692040018
ecg0606	30	24	3	0.37117910734761567	238	49672	13	0.9812962157459765	11.171378860374075	30	42448	13	0.9812962157459765	1.5698129621574597
ecg0606	30	24	4	0.31510659327591667	183	50996	12	0.9404088734232275	7.2814267072640275	40	45752	12	0.9404088734232275	1.6080904741191822
ecg0606	30	24	5	0.2696165489485926	154	52984	11	0.820356676816007	5.948673336233145	36	48920	11	0.820356676816007	1.421922575032623
ecg0606	30	24	6	0.24088552738533447	130	52984	10	0.7881687690300131	4.56981296215746	35	49664	10	0.7881687690300131	1.2766420182688125
ecg0606	30	24	7	0.21958388122105177	104	53264	6	0.6929099608525446	3.557198782079165	35	50872	6	0.6929099608525446	1.210091344062636
ecg0606	30	24	8	0.19942476051880598	90	53544	8	0.6581122227055242	3.0243584167029143	34	51576	6	0.6581122227055242	1.0608960417572857
ecg0606	30	24	9	0.1831325439242817	64	53860	5	0.4810787298825576	2.0556763810352328	27	52384	5	0.4810787298825576	0.807742496737712
ecg0606	30	24	10	0.17125334716410978	66	54132	5	0.4884732492387995	2.0543714658547194	25	52664	5	0.4884732492387995	0.7603305785123967
ecg0606	30	24	12	0.15437317013788646	38	53668	4	0.4384515006524576	1.0904741191822531	22	52980	4	0.4384515006524576	0.6402783819051762
ecg0606	30	26	2	0.4613216231141182	183	40806	34	0.9991300565463245	17.856024358416704	10	35484	33	0.9991300565463245	1.7759895606785558
ecg0606	30	26	3	0.36351571779167846	251	54786	15	0.9991300565463245	11.66681165724228	26	46342	15	0.9991300565463245	1.7272727272727273
ecg0606	30	26	4	0.30706760119086324	197	56968	13	0.9578077424967377	7.931709438886473	40	50762	13	0.9578077424967377	1.78294910830796
ecg0606	30	26	5	0.26139168432116	130	57516	13	0.8199217050891692	5.688125271857329	30	53812	13	0.8199217050891692	1.3732057416267942
ecg0606	30	26	6	0.23300591088050512	121	56688	9	0.7994780339277947	4.336668116572422	42	53834	9	0.7994780339277947	1.453675511091779
ecg0606	30	26	7	0.21188626658048915	86	57692	6	0.6785558938668986	2.8003479773814703	35	55700	6	0.6785558938668986	1.097868638538495
ecg0606	30	26	8	0.1917537154635403	74	57784	6	0.6437581557198782	2.4871683340582864	33	56180	4	0.6437581557198782	0.9691170073945193
ecg0606	30	26	9	0.17596182648947328	80	59182	4	0.6202696824706394	2.4275772074815136	31	57096	3	0.6202696824706394	0.8782079164854284
ecg0606	30	26	10	0.1642102311164251	47	58458	6	0.39016963897346674	1.4867333623314485	21	57414	6	0.39016963897346674	0.6372335798173119
ecg0606	30	26	12	0.14665882421580984	40	58122	5	0.4140930839495433	1.1961722488038278	22	57384	5	0.4140930839495433	0.6589821661591997
ecg0606	30	28	2	0.45589518804778484	176	44736	34	0.9991300565463245	18.648107872988255	7	38848	33	0.9991300565463245	1.5306655067420618
ecg0606	30	28	3	0.3583339532063461	243	59164	13	0.9978251413658112	11.32579382340148	26	50444	13	0.9978251413658112	1.690300130491518
ecg0606	30	28	4	0.30205199422124196	188	62136	13	0.9521531100478469	7.2540234884732495	37	55552	13	0.9521531100478469	1.530230535015224
ecg0606	30	28	5	0.25651913824558503	121	61576	12	0.8073075250108743	5.092214006089605	33	57920	12	0.8073075250108743	1.3066550674206177
ecg0606	30	28	6	0.2281131845839386	113	61480	9	0.7525010874293171	4.136146150500218	40	58496	5	0.7525010874293171	1.282731622444541
ecg0606	30	28	7	0.2071877122699557	83	62584	5	0.5880817746846455	2.7120487168334058	29	60328	5	0.5880817746846455	0.9625924314919531
ecg0606	30	28	8	0.18662844575682389	70	62748	6	0.6411483253588517	2.215745976511527	30	61060	6	0.6411483253588517	0.9321444106133101
ecg0606	30	28	9	0.17116758049514938	58	62840	5	0.46237494562853415	1.834275772074815	24	61344	4	0.46237494562853415	0.7485863418877773
ecg0606	30	28	10	0.15906159504324704	40	62824	4	0.42105263157894735	1.2214006089604175	22	62032	3	0.42105263157894735	0.6124401913875598
ecg0606	30	28	12	0.1413963253309377	29	62848	4	0.34145280556763813	0.8225315354501957	17	62296	4	0.34145280556763813	0.47890387124836886
ecg0606	30	30	2	0.41517794595848956	175	51416	34	0.9991300565463245	19.013049151805134	7	45054	33	0.9991300565463245	1.4132231404958677
ecg0606	30	30	3	0.31698793406828973	258	64400	14	0.9895606785558939	12.501087429317094	31	55044	14	0.9895606785558939	1.7485863418877774
ecg0606	30	30	4	0.25999003256688474	176	66774	10	0.9277946933449326	6.52718573292736	39	60530	10	0.9277946933449326	1.5032622879512831
ecg0606	30	30	5	0.21386223205440993	105	65882	13	0.743801652892562	4.702479338842975	29	62648	13	0.743801652892562	1.2627229230100043
ecg0606	30	30	6	0.18573168315143895	100	66868	12	0.6428882122662027	3.8477598956067856	29	63778	6	0.6428882122662027	0.9338842975206612
ecg0606	30	30	7	0.16542361737068917	64	66362	4	0.48064375815571986	2.2127011744236627	25	64672	4	0.48064375815571986	0.8225315354501957
ecg0606	30	30	8	0.1447574330606275	53	66778	6	0.47498912570682905	1.8142670726402783	25	65462	4	0.47498912570682905	0.7559808612440191
ecg0606	30	30	9	0.12854147676684888	70	67720	4	0.4775989560678556	2.121357111787734	27	65842	4	0.4775989560678556	0.7929534580252283
ecg0606	30	30	10	0.11638238131838462	44	67260	4	0.3836450630709004	1.4136581122227054	20	66288	4	0.3836450630709004	0.6037407568508047
ecg0606	30	30	12	0.09886950636578717	27	67344	3	0.30100043497172685	0.7638103523270987	19	66864	3	0.30100043497172685	0.5345802522836016
ecg0606	50	2	2	0.875787486321884	7	234	45	0.9795563288386255	5.972161809482384	2	194	45	0.9795563288386255	1.494562853414528
ecg0606	50	2	3	0.8669512412973923	9	186	45	0.9939103958242714	7.936929099608525	2	138	16	0.9939103958242714	1.1457155284906482
ecg0606	50	2	4	0.8035559486846269	11	180	45	0.9904306220095693	8.649847759895607	3	124	45	0.9904306220095693	2.398434101783384
ecg0606	50	2	5	0.7842520420775922	15	320	46	0.994780339277947	10.239234449760765	3	236	46	0.994780339277947	2.3153545019573727
ecg0606	50	2	6	0.7346111080284663	10	214	45	0.9939103958242714	9.278816876903	3	170	44	0.9939103958242714	2.5724227925184864
ecg0606	50	2	7	0.694852269331427	14	426	46	0.9939103958242714	11.95171813832101	2	344	31	0.9939103958242714	1.2779469334493259
ecg0606	50	2	8	0.6886840726388782	17	672	46	0.9943453675511091	12.755110917790343	3	576	45	0.9943453675511091	2.295345802522836
ecg0606	50	2	9	0.6877212151654947	19	972	46	1.0	13.953892996955197	4	864	46	1.0	2.688995215311005
ecg0606	50	2	10	0.6863798740578465	23	1138	46	0.9986950848194868	15.862113962592431	4	1002	45	0.9986950848194868	2.5993910395824273
ecg0606	50	2	12	0.6612525660677996	21	1184	46	1.0	16.460635058721184	4	1064	45	1.0	2.718573292735972
ecg0606	50	4	2	0.7056669010115604	17	548	44	0.9921705089169204	12.545019573727707	3	436	16	0.9921705089169204	1.6311439756415833
ecg0606	50	4	3	0.6279842676636632	58	2352	30	0.9978251413658112	14.00217485863419	6	1936	27	0.9978251413658112	1.8364506307090038
ecg0606	50	4	4	0.5497442873075056	90	3532	28	0.9986950848194868	17.43584167029143	7	2868	16	0.9986950848194868	1.4784688995215312
ecg0606	50	4	5	0.5193232566657291	127	4712	19	1.0	19.832535885167463	13	3800	16	1.0	1.6663766855154416
ecg0606	50	4	6	0.499920903030591	144	5428	28	0.9995650282731623	22.075685080469768	6	4324	28	0.9995650282731623	1.5745976511526751
ecg0606	50	4	7	0.49236267433697145	176	6392	16	0.9995650282731623	22.52675076120052	8	5048	16	0.9995650282731623	1.5980861244019138
ecg0606	50	4	8	0.4775626349689769	193	6772	16	0.9991300565463245	23.026098303610265	10	5308	16	0.9991300565463245	1.642018268812527
ecg0606	50	4	9	0.465398132428662	216	7256	16	0.9991300565463245	23.43410178338408	10	5608	15	0.9991300565463245	1.54458460200087
ecg0606	50	4	10	0.4620530818563065	260	8276	16	0.9995650282731623	24.541539799913007	10	6276	16	0.9995650282731623	1.7868638538494999
ecg0606	50	4	12	0.4413012328223484	275	8972	15	1.0	25.79077859939104	23	6956	15	1.0	1.640278381905176
ecg0606	50	6	2	0.6357484709451167	39	2252	30	0.9960852544584602	14.657242279251848	6	1930	30	0.9960852544584602	2.0874293170943887
ecg0606	50	6	3	0.5529929806526266	96	5414	26	0.9986950848194868	16.607655502392344	6	4538	18	0.9986950848194868	1.7411918225315355
ecg0606	50	6	4	0.470423035862916	127	7530	16	1.0	20.598521096128753	17	6426	16	1.0	1.8742931709438886
ecg0606	50	6	5	0.43680372151910474	176	9230	16	0.9991300565463245	20.597651152675077	11	7528	16	0.9991300565463245	1.9047411918225314
ecg0606	50	6	6	0.41541575643391027	201	10620	21	0.9943453675511091	22.61374510656807	10	8650	21	0.9943453675511091	1.902131361461505
ecg0606	50	6	7	0.39481504309657917	225	12030	15	0.9960852544584602	21.98434101783384	15	9838	12	0.9960852544584602	1.624184428012179
ecg0606	50	6	8	0.3760820644188827	256	13092	15	0.9973901696389734	22.50369725967812	16	10582	15	0.9973901696389734	1.5241409308394955
ecg0606	50	6	9	0.36147594381043685	270	13772	14	0.9969551979121357	21.86602870813397	13	11084	14	0.9969551979121357	1.7194432361896477
ecg0606	50	6	10	0.3532713525602567	276	14360	12	0.9978251413658112	20.74032187907786	20	11666	12	0.9978251413658112	1.7938234014789038
ecg0606	50	6	12	0.33388395845134133	247	14428	14	0.9986950848194868	18.454110482818617	16	11958	14	0.9986950848194868	1.6128751631143976
ecg0606	50	8	2	0.5932239720969286	64	4444	27	0.9939103958242714	14.799913005654632	8	3848	27	0.9939103958242714	2.156589821661592
ecg0606	50	8	3	0.5084624038071721	139	8892	16	1.0	17.437581557198783	18	7476	16	1.0	1.9264897781644192
ecg0606	50	8	4	0.42460034455551654	195	12356	16	0.9973901696389734	21.88777729447586	10	10104	16	0.9973901696389734	1.7890387124836886
ecg0606	50	8	5	0.3917339897361499	237	15884	15	0.9986950848194868	21.09134406263593	13	13012	15	0.9986950848194868	1.465854719443236
ecg0606	50	8	6	0.3681591858937598	218	15628	14	0.982166159199652	20.240974336668117	17	13052	13	0.982166159199652	2.165724227925185
ecg0606	50	8	7	0.3468347721943056	247	17768	14	0.976946498477599	18.433666811657243	21	14800	14	0.976946498477599	1.6650717703349283
ecg0606	50	8	8	0.32584482123871433	237	18228	14	0.9904306220095693	18.725532840365375	17	15332	14	0.9904306220095693	1.4993475424097433
ecg0606	50	8	9	0.3121211074183319	245	18972	13	0.987385819921705	18.15267507612005	22	16004	13	0.987385819921705	1.7037842540234884
ecg0606	50	8	10	0.30528422464840316	227	19488	10	0.996520226185298	13.97651152675076	26	16700	10	0.996520226185298	1.7124836885602437
ecg0606	50	8	12	0.28378650457579463	226	19780	9	0.9364941278816877	14.570247933884298	24	17076	6	0.9364941278816877	1.4049586776859504
ecg0606	50	10	2	0.5635582589801357	69	8104	27	0.9943453675511091	19.09525880817747	5	7262	16	0.9943453675511091	1.1713788603740758
ecg0606	50	10	3	0.478460797216521	178	13204	15	0.9991300565463245	19.433666811657243	12	10856	14	0.9991300565463245	1.843410178338408
ecg0606	50	10	4	0.39395021974351035	207	17820	15	0.9991300565463245	21.271422357546758	11	14896	15	0.9991300565463245	1.5745976511526751
ecg0606	50	10	5	0.3603805401653484	256	20672	14	0.9956502827316225	19.259243149195303	20	16936	14	0.9956502827316225	1.7446715963462376
ecg0606	50	10	6	0.3358886299724877	234	22200	14	0.983906046107003	19.61026533275337	16	18788	14	0.983906046107003	1.7181383210091343
ecg0606	50	10	7	0.3138909003327436	225	22654	12	0.9913005654632449	15.945193562418442	20	19376	12	0.9913005654632449	1.5484993475424098
ecg0606	50	10	8	0.2932174578859143	224	23288	12	0.9408438451500652	15.344062635928665	24	20134	8	0.9408438451500652	1.5898216615919964
ecg0606	50	10	9	0.27865832143663044	220	23800	11	0.966072205306655	14.469334493257938	25	20596	11	0.966072205306655	1.766855154414963
ecg0606	50	10	10	0.2718813360579634	175	23672	8	0.9143105698129621	9.847324923879947	25	21050	8	0.9143105698129621	1.558938668986516
ecg0606	50	10	12	0.25095975925661596	160	23484	10	0.9260548064375815	9.662461939973902	31	21336	10	0.9260548064375815	1.8120922140060896
ecg0606	50	12	2	0.5444781207829986	93	9464	25	0.9956502827316225	18.134841235319705	8	8160	15	0.9956502827316225	1.7698999565028273
ecg0606	50	12	3	0.46016549711526467	198	18972	16	0.9978251413658112	21.55241409308395	11	16012	16	0.9978251413658112	1.8616789908655937
ecg0606	50	12	4	0.3752327234221634	217	23232	14	0.9943453675511091	20.945193562418442	13	19624	14	0.9943453675511091	1.5928664636798608
ecg0606	50	12	5	0.34111387481361655	240	26772	15	0.9860809047411918	18.714223575467596	17	22644	15	0.9860809047411918	1.878642888212266
ecg0606	50	12	6	0.3170287690448971	206	26740	13	0.9525880817746847	15.026098303610265	17	23228	13	0.9525880817746847	1.8586341887777293
ecg0606	50	12	7	0.294500954054277	203	28312	10	0.9364941278816877	13.32361896476729	21	24776	10	0.9364941278816877	1.5806872553284037
ecg0606	50	12	8	0.2731817457858912	205	28660	11	0.9264897781644194	13.231404958677686	24	25140	11	0.9264897781644194	1.5367551109177904
ecg0606	50	12	9	0.2582476014197911	190	28512	12	0.9308394954327969	11.344497607655502	27	25328	12	0.9308394954327969	1.7925184862983905
ecg0606	50	12	10	0.25114655490853915	136	28200	8	0.8847324923879948	7.627229230100044	28	25944	8	0.8847324923879948	1.4693344932579382
ecg0606	50	12	12	0.2308174145617701	141	28360	8	0.8699434536755111	7.927794693344932	28	26088	4	0.8699434536755111	1.340147890387125
ecg0606	50	14	2	0.5301747740563105	112	12502	25	0.9943453675511091	23.378425402348846	8	10680	25	0.9943453675511091	2.028708133971292
ecg0606	50	14	3	0.4456755909089095	205	23496	15	0.9986950848194868	20.409743366681166	13	19670	12	0.9986950848194868	1.9369290996085256
ecg0606	50	14	4	0.360406784177813	247	30154	14	0.9760765550239234	21.763375380600262	12	25374	14	0.9760765550239234	1.3853849499782513
ecg0606	50	14	5	0.3263916674627216	207	30934	12	0.9860809047411918	14.460200086994345	18	26752	12	0.9860809047411918	1.4754240974336668
ecg0606	50	14	6	0.30211873657266985	205	32326	12	0.9504132231404959	14.4884732492388	21	28314	12	0.9504132231404959	1.6772509786863854
ecg0606	50	14	7	0.2798937231616335	202	33322	9	0.9630274032187908	11.80426272292301	22	29212	9	0.9630274032187908	1.60852544584602
ecg0606	50	14	8	0.257974104859351	187	33198	10	0.8755980861244019	11.021748586341888	23	29566	10	0.8755980861244019	1.4745541539799913
ecg0606	50	14	9	0.24309290755841498	156	32860	10	0.9447585906916051	8.96302740321879	29	29944	10	0.9447585906916051	1.6481078729882557
ecg0606	50	14	10	0.23605701586464423	116	32038	6	0.9234449760765551	5.767725097868639	35	30030	5	0.9234449760765551	1.747281426707264
ecg0606	50	14	12	0.21481978595784984	107	32408	6	0.8007829491083079	5.641148325358851	28	30606	4	0.8007829491083079	1.334493257938234
ecg0606	50	16	2	0.5178883381018842	140	17924	22	1.0	22.406698564593302	13	15552	22	1.0	1.8460200086994345
ecg0606	50	16	3	0.4332799145255222	245	30176	14	0.9952153110047847	20.855589386689864	13	25032	14	0.9952153110047847	1.67638103523271
ecg0606	50	16	4	0.34765374342546923	250	34648	14	0.973466724662897	20.77468464549804	16	29260	14	0.973466724662897	1.7820791648542844
ecg0606	50	16	5	0.31365773949327147	220	37276	8	0.9952153110047847	13.97477163984341	27	32312	8	0.9952153110047847	1.7433666811657242
ecg0606	50	16	6	0.28925275616365476	212	37540	11	0.9565028273162245	13.625489343192692	25	32900	9	0.9565028273162245	1.7137886037407568
ecg0606	50	16	7	0.2667946844670683	167	37560	7	0.9238799478033928	9.348412353197043	28	33988	7	0.9238799478033928	1.537190082644628
ecg0606	50	16	8	0.2451556452373554	157	37636	7	0.8447150935189213	9.433231839930405	24	34328	6	0.8447150935189213	1.4719443236189649
ecg0606	50	16	9	0.23016270763466767	139	37632	8	0.8747281426707264	7.856459330143541	26	34640	6	0.8747281426707264	1.3840800347977382
ecg0606	50	16	10	0.2232855070580396	82	36364	5	0.8351457155284906	4.136146150500218	27	34916	5	0.8351457155284906	1.3801652892561984
ecg0606	50	16	12	0.20181209523967925	89	36508	6	0.7090039147455416	4.7546759460635055	26	34912	6	0.7090039147455416	1.3601565898216617
ecg0606	50	18	2	0.5087970003316161	156	23590	20	1.0	24.16267942583732	13	20570	20	1.0	2.0039147455415396
ecg0606	50	18	3	0.4240323413431236	249	35794	14	0.9747716398434102	20.566333188342757	15	29890	14	0.9747716398434102	1.6607220530665507
ecg0606	50	18	4	0.3385581594539015	230	40040	14	0.9760765550239234	18.39930404523706	19	34432	14	0.9760765550239234	1.7272727272727273
ecg0606	50	18	5	0.304314430449437	188	41512	11	0.9586776859504132	11.954762940408873	26	36772	11	0.9586776859504132	1.7264027838190517
ecg0606	50	18	6	0.279730251291637	182	41864	10	0.9277946933449326	11.146150500217486	25	37640	10	0.9277946933449326	1.763375380600261
ecg0606	50	18	7	0.257084202245734	142	41694	9	0.8503697259678121	7.821226620269682	25	38350	6	0.8503697259678121	1.3632013919095258
ecg0606	50	18	8	0.23537450626062845	128	41896	7	0.8590691605045672	7.062635928664637	25	38860	5	0.8590691605045672	1.2979556328838626
ecg0606	50	18	9	0.2202639060450663	137	42330	9	0.8642888212266203	7.256633318834276	25	39054	5	0.8642888212266203	1.272292301000435
ecg0606	50	18	10	0.2136159693673842	61	40446	4	0.702914310569813	3.0935189212701175	25	39318	4	0.702914310569813	1.1431056981296215
ecg0606	50	18	12	0.19238818634098206	62	40536	6	0.6546324488908221	3.3627664201826883	23	39398	6	0.6546324488908221	1.2287951283166594
ecg0606	50	20	2	0.5034563850623588	167	26876	20	1.0	23.770334928229666	17	23388	20	1.0	2.10656807307525
ecg0606	50	20	3	0.4186310877818448	229	40560	15	0.9686820356676816	20.076120052196607	13	34432	14	0.9686820356676816	1.5554588951718138
ecg0606	50	20	4	0.33291245558086824	221	45008	14	0.9569377990430622	16.80034797738147	21	39152	14	0.9569377990430622	1.7511961722488039
ecg0606	50	20	5	0.2987435051076629	173	46332	7	0.9221400608960417	10.182688125271858	26	41636	7	0.9221400608960417	1.6472379295345803
ecg0606	50	20	6	0.27422584996100097	156	46308	9	0.8829926054806437	9.49804262722923	26	42292	4	0.8829926054806437	1.4332318399304045
ecg0606	50	20	7	0.2513467917517443	122	45432	6	0.8225315354501957	6.695519791213571	29	42448	6	0.8225315354501957	1.505437146585472
ecg0606	50	20	8	0.22966463476424537	112	46148	7	0.784688995215311	6.033057851239669	22	43156	7	0.784688995215311	1.3205741626794258
ecg0606	50	20	9	0.21422049707501875	106	46112	5	0.8073075250108743	5.684210526315789	25	43576	5	0.8073075250108743	1.332753371030883
ecg0606	50	20	10	0.20780114218079243	50	44668	4	0.7220530665506742	2.2905611135276205	28	43868	4	0.7220530665506742	1.2657677250978687
ecg0606	50	20	12	0.18639946767074134	51	45084	4	0.6015658982166159	2.4541104828186167	22	44036	4	0.6015658982166159	1.0060896041757286
ecg0606	50	22	2	0.4953440177964946	196	34118	20	1.0	27.700304480208786	14	29620	20	1.0	2.0456720313179644
ecg0606	50	22	3	0.4104589111450347	261	47814	15	0.9699869508481949	20.134406263592865	16	40184	15	0.9699869508481949	1.85080469769465
ecg0606	50	22	4	0.32471818874767533	203	49472	14	0.9569377990430622	15.817311874728142	18	43618	14	0.9569377990430622	1.6772509786863854
ecg0606	50	22	5	0.290636311886768	169	51698	6	0.9334493257938234	9.107003044802088	28	46610	4	0.9334493257938234	1.432361896476729
ecg0606	50	22	6	0.2659986419114827	148	51126	9	0.8303610265332754	8.929534580252284	23	46940	9	0.8303610265332754	1.428882122662027
ecg0606	50	22	7	0.24319754155392292	94	50144	6	0.7807742496737712	4.974336668116573	21	47490	6	0.7807742496737712	1.1892127011744236
ecg0606	50	22	8	0.22128375391721797	99	50144	5	0.8173118747281427	5.051326663766855	28	47632	4	0.8173118747281427	1.384515006524576
ecg0606	50	22	9	0.20611919874962695	81	49874	6	0.6946498477598956	4.3888647237929534	25	48022	6	0.6946498477598956	1.2501087429317095
ecg0606	50	22	10	0.19947495141411223	36	49328	4	0.491083079599826	1.674206176598521	18	48716	3	0.491083079599826	0.7772944758590692
ecg0606	50	22	12	0.17791436010195616	53	49618	5	0.512396694214876	2.6320139190952587	19	48446	3	0.512396694214876	0.8973466724662897
ecg0606	50	24	2	0.490010213745264	206	38120	19	0.996520226185298	26.573292735972164	10	32652	19	0.996520226185298	1.8412353197042193
ecg0606	50	24	3	0.40522060293013556	271	53492	12	0.9712918660287081	19.868638538495	18	44888	12	0.9712918660287081	1.7725097868638537
ecg0606	50	24	4	0.3194272854689365	218	55272	11	0.9656372335798173	15.778164419312745	20	48648	11	0.9656372335798173	1.5732927359721618
ecg0606	50	24	5	0.2852747092141519	130	55240	8	0.8708133971291866	6.956502827316225	27	51296	8	0.8708133971291866	1.384515006524576
ecg0606	50	24	6	0.26046075358699194	129	55176	11	0.8242714223575468	7.829056111352762	25	51344	11	0.8242714223575468	1.4654197477163984
ecg0606	50	24	7	0.23752244864403416	100	55448	5	0.7955632883862549	4.919095258808177	25	52508	5	0.7955632883862549	1.200956937799043
ecg0606	50	24	8	0.21593188942223407	77	54236	7	0.6859504132231405	4.1739886907351025	22	52116	6	0.6859504132231405	1.1444106133101348
ecg0606	50	24	9	0.20072478865124194	78	54820	7	0.628099173553719	3.816876903001305	21	52624	7	0.628099173553719	1.0948238364506306
ecg0606	50	24	10	0.1940421485927143	21	53448	5	0.3906046107003045	1.0013049151805133	14	53132	5	0.3906046107003045	0.6454980426272292
ecg0606	50	24	12	0.17259639537272692	42	54276	3	0.46933449325793825	1.8782079164854284	16	53288	3	0.46933449325793825	0.7107438016528925
ecg0606	50	26	2	0.48545873074930346	237	44846	17	0.9995650282731623	29.210961287516312	10	37706	16	0.9995650282731623	2.0595911265767723
ecg0606	50	26	3	0.40088446889453505	243	56858	13	0.9765115267507612	17.662896911700738	17	48516	13	0.9765115267507612	1.7585906916050458
ecg0606	50	26	4	0.31484918402896106	217	61064	12	0.9238799478033928	14.700304480208786	22	53762	11	0.9238799478033928	1.596346237494563
ecg0606	50	26	5	0.2807826413953726	119	59662	5	0.8364506307090039	6.08916920400174	26	55640	5	0.8364506307090039	1.4741191822531536
ecg0606	50	26	6	0.2559130314766051	131	60294	9	0.7994780339277947	7.3166594171378865	24	55984	6	0.7994780339277947	1.3423227490213137
ecg0606	50	26	7	0.23313701766869369	77	58722	8	0.7390169638973467	4.133971291866029	25	56656	8	0.7390169638973467	1.3123096998695085
ecg0606	50	26	8	0.21109449457133336	78	59246	4	0.7181383210091344	3.8747281426707265	23	56936	4	0.7181383210091344	1.158329708568943
ecg0606	50	26	9	0.19630022483919773	66	58832	9	0.6324488908220965	3.617659852109613	20	56990	9	0.6324488908220965	1.140495867768595
ecg0606	50	26	10	0.18938369013874043	18	57884	4	0.33144845585036975	0.8020878642888212	14	57698	4	0.33144845585036975	0.6237494562853415
ecg0606	50	26	12	0.16782368642499151	36	58426	4	0.5158764680295781	1.699434536755111	17	57592	4	0.5158764680295781	0.7820791648542845
ecg0606	50	28	2	0.4816291323382236	236	47948	17	0.9956502827316225	27.636798608090473	10	40308	15	0.9956502827316225	1.9382340147890387
ecg0606	50	28	3	0.39690565847812914	255	64340	12	0.9725967812092214	17.940408873423227	16	55108	12	0.9725967812092214	1.7464114832535884
ecg0606	50	28	4	0.3109490151408613	199	65628	12	0.919965202261853	12.754675946063506	22	58164	7	0.919965202261853	1.615484993475424
ecg0606	50	28	5	0.2766409788451776	113	63748	5	0.8229665071770335	5.843410178338408	34	60188	5	0.8229665071770335	1.7181383210091343
ecg0606	50	28	6	0.2517464202712417	120	63796	11	0.7612005219660722	7.323183993040453	27	59956	10	0.7612005219660722	1.6320139190952587
ecg0606	50	28	7	0.22904193072661747	71	63384	7	0.7033492822966507	3.7407568508046976	23	61176	4	0.7033492822966507	1.1217920835145716
ecg0606	50	28	8	0.20720565212481876	60	63196	5	0.7150935189212702	2.9030013049151804	24	61492	5	0.7150935189212702	1.1365811222270552
ecg0606	50	28	9	0.1920750231653251	55	62860	6	0.5767725097868639	2.905176163549369	21	61292	6	0.5767725097868639	1.1383210091344063
ecg0606	50	28	10	0.18552274959866574	21	62328	4	0.4658547194432362	0.955632883862549	16	62096	4	0.4658547194432362	0.7320574162679426
ecg0606	50	28	12	0.1637984932760546	34	62800	4	0.4314919530230535	1.6289691170073946	17	61992	3	0.4314919530230535	0.8012179208351458
ecg0606	50	30	2	0.47718203397576936	268	58104	18	0.9991300565463245	28.793823401478903	10	48812	16	0.9991300565463245	1.8903871248368855
ecg0606	50	30	3	0.3922823702773755	239	67556	12	0.9673771204871683	16.343627664201826	21	58116	12	0.9673771204871683	1.61244019138756
ecg0606	50	30	4	0.3063606602442679	196	70342	14	0.9108307959982601	12.627664201826882	23	62588	14	0.9108307959982601	1.5019573727707698
ecg0606	50	30	5	0.27212384980282145	110	68996	6	0.8708133971291866	5.646367986080905	28	64726	6	0.8708133971291866	1.4497607655502391
ecg0606	50	30	6	0.24721891859184236	107	68632	6	0.7355371900826446	6.023488473249238	25	64934	6	0.7355371900826446	1.37016093953893
ecg0606	50	30	7	0.2243647241757425	66	67948	4	0.6576772509786863	3.2231404958677685	23	65862	4	0.6576772509786863	1.1378860374075686
ecg0606	50	30	8	0.2024297382818169	42	67116	4	0.5624184428012179	2.0282731622444543	21	66064	4	0.5624184428012179	1.0434971726837756
ecg0606	50	30	9	0.18740392360188055	47	67424	4	0.5158764680295781	2.23836450630709	18	66100	4	0.5158764680295781	0.8899521531100478
ecg0606	50	30	10	0.18079933825065375	27	67424	3	0.40930839495432797	1.1809482383645062	14	66644	3	0.40930839495432797	0.6041757285776425
ecg0606	50	30	12	0.15917663375874502	31	67522	3	0.35537190082644626	1.4071335363201392	14	66554	2	0.35537190082644626	0.5846020008699434
ecg0606	70	2	2	1.0333821737963782	6	162	31	0.9908655937364071	4.975641583297086	2	132	31	0.9908655937364071	1.4623749456285342
ecg0606	70	2	3	0.9168405354636138	9	138	31	0.9939103958242714	6.6207046541974774	3	96	18	0.9939103958242714	1.9047411918225314
ecg0606	70	2	4	0.8329011557688699	11	176	31	0.9908655937364071	7.013919095258808	3	124	16	0.9908655937364071	1.8103523270987385
ecg0606	70	2	5	0.8215994678305154	12	332	39	0.9926054806437582	7.447585906916051	2	262	31	0.9926054806437582	1.3292735972161809
ecg0606	70	2	6	0.7617473306271237	13	340	31	0.9913005654632449	9.987820791648543	2	264	31	0.9913005654632449	1.3988690735102218
ecg0606	70	2	7	0.7703765927010916	13	352	38	0.9986950848194868	9.55806872553284	3	288	31	0.9986950848194868	1.960852544584602
ecg0606	70	2	8	0.7491456511601495	21	500	33	0.9926054806437582	10.23662461939974	4	382	29	0.9926054806437582	2.257503262287951
ecg0606	70	2	9	0.7440710251685487	18	518	35	0.9913005654632449	12.042192257503263	2	414	31	0.9913005654632449	1.3614615050021748
ecg0606	70	2	10	0.7372875275873383	24	562	39	0.9926054806437582	11.710743801652892	3	422	24	0.9926054806437582	1.3979991300565464
ecg0606	70	2	12	0.7251403622055659	23	652	37	0.9939103958242714	15.55023923444976	3	518	31	0.9939103958242714	1.8677685950413223
ecg0606	70	4	2	0.7950079043693716	33	1164	32	0.9921705089169204	10.618529795563289	4	932	25	0.9921705089169204	2.0517616354936927
ecg0606	70	4	3	0.6860000161504771	63	2020	29	0.996520226185298	15.932579382340148	6	1564	27	0.996520226185298	2.2379295345802523
ecg0606	70	4	4	0.6209520072973129	85	2888	20	0.9991300565463245	18.28882122662027	5	2248	15	0.9991300565463245	1.2322749021313615
ecg0606	70	4	5	0.5929974606875525	109	3792	16	0.9978251413658112	19.326228795128316	8	2984	16	0.9978251413658112	1.8473249238799478
ecg0606	70	4	6	0.5736715249904807	124	4272	19	0.9991300565463245	21.336233144845586	9	3352	19	0.9991300565463245	2.3636363636363638
ecg0606	70	4	7	0.5691439842847696	156	5368	17	0.9969551979121357	23.078729882557635	9	4192	15	0.9969551979121357	1.8234014789038713
ecg0606	70	4	8	0.5496636037886812	183	5944	15	0.9969551979121357	26.36450630709004	10	4560	14	0.9969551979121357	1.816441931274467
ecg0606	70	4	9	0.5404125060946727	189	6112	17	0.9995650282731623	26.847759895606785	10	4680	13	0.9995650282731623	1.9882557633753806
ecg0606	70	4	10	0.5284870375071264	191	6492	15	0.9943453675511091	23.311004784688997	9	5036	15	0.9943453675511091	2.1096128751631142
ecg0606	70	4	12	0.5119330075079631	221	7692	14	0.998260113092649	25.591561548499346	12	6020	14	0.998260113092649	1.742061765985211
ecg0606	70	6	2	0.7212716555960581	55	2626	22	0.9978251413658112	15.385384949978251	6	2150	15	0.9978251413658112	1.8455850369725968
ecg0606	70	6	3	0.6117631242085009	90	4668	21	0.9973901696389734	20.14310569812962	5	3814	15	0.9973901696389734	1.6289691170073946
ecg0606	70	6	4	0.5368827455235692	127	6652	15	1.0	21.442366246194	14	5514	15	1.0	1.7451065680730753
ecg0606	70	6	5	0.5002868812371326	160	8626	15	0.9934754240974336	23.642888212266204	7	7030	15	0.9934754240974336	1.6837755545889517
ecg0606	70	6	6	0.4656848682303645	178	9306	15	0.9991300565463245	23.644193127446716	9	7536	15	0.9991300565463245	1.7320574162679425
ecg0606	70	6	7	0.4464886208123453	212	10716	14	0.998260113092649	26.405393649412787	9	8598	14	0.998260113092649	1.9108307959982602
ecg0606	70	6	8	0.429704009782787	199	11240	15	0.9969551979121357	25.63418877772945	10	9268	15	0.9969551979121357	2.098303610265333
ecg0606	70	6	9	0.41933143474596224	222	12200	14	0.9969551979121357	26.7638103523271	12	10000	12	0.9969551979121357	1.6537625054371465
ecg0606	70	6	10	0.4143002873061391	211	12418	14	0.9921705089169204	22.9147455415398	11	10276	9	0.9921705089169204	1.8425402348847324
ecg0606	70	6	12	0.397535438981297	215	13416	13	0.9717268377555459	22.559808612440193	12	11264	13	0.9717268377555459	1.5750326228795128
ecg0606	70	8	2	0.6722163285030605	65	4024	15	0.9978251413658112	18.392344497607656	7	3344	14	0.9978251413658112	2.0543714658547194
ecg0606	70	8	3	0.5639811768256535	120	8580	16	0.998260113092649	23.33101348412353	8	7216	15	0.998260113092649	1.7120487168334058
ecg0606	70	8	4	0.4883799507501629	169	11212	15	0.9978251413658112	26.171378860374077	7	9172	15	0.9978251413658112	1.7825141365811221
ecg0606	70	8	5	0.45027659406655063	203	14296	14	0.9969551979121357	26.684645498042627	8	11844	14	0.9969551979121357	1.6676816006959547
ecg0606	70	8	6	0.4161353922814497	207	15816	14	0.9960852544584602	27.555458895171814	9	13276	14	0.9960852544584602	1.5380600260983035
ecg0606	70	8	7	0.39524184779972793	216	16936	14	0.9926054806437582	26.498912570682904	9	14240	14	0.9926054806437582	1.5058721183123096
ecg0606	70	8	8	0.37662575537561327	228	17828	14	0.9930404523705959	26.197477163984342	11	14996	14	0.9930404523705959	1.7168334058286212
ecg0606	70	8	9	0.36155684562314816	237	18760	13	0.9956502827316225	24.305350152240106	14	15732	12	0.9956502827316225	1.7129186602870814
ecg0606	70	8	10	0.35408095356125596	212	18648	12	0.9234449760765551	20.179208351457156	13	15928	12	0.9234449760765551	1.8995215311004785
ecg0606	70	8	12	0.34018993650223517	203	19384	12	0.9034362766420183	17.5080469769465	15	16784	12	0.9034362766420183	1.6185297955632885
ecg0606	70	10	2	0.6386255068411083	88	7620	17	1.0	18.842540234884734	11	6596	17	1.0	1.717268377555459
ecg0606	70	10	3	0.5296635087878929	159	13158	15	0.9991300565463245	24.276642018268813	7	10910	15	0.9991300565463245	1.5824271422357548
ecg0606	70	10	4	0.45149061223116954	193	16550	15	0.9913005654632449	24.948673336233146	9	13722	15	0.9913005654632449	1.6842105263157894
ecg0606	70	10	5	0.4135881265240617	215	19618	13	0.9973901696389734	23.834275772074815	12	16392	13	0.9973901696389734	1.8142670726402783
ecg0606	70	10	6	0.3824229255913913	224	21354	13	0.9656372335798173	23.495432796868204	12	18002	13	0.9656372335798173	1.806002609830361
ecg0606	70	10	7	0.3602593497331482	211	22362	12	0.959112657677251	21.463679860809048	14	19154	8	0.959112657677251	1.7533710308829926
ecg0606	70	10	8	0.3409417641481722	196	23038	12	0.9369290996085254	19.835580687255327	13	20044	12	0.9369290996085254	1.7424967377120488
ecg0606	70	10	9	0.3240566188275889	191	23610	12	0.9360591561548499	18.33101348412353	15	20666	12	0.9360591561548499	1.8290561113527621
ecg0606	70	10	10	0.31639431244074845	183	23832	10	0.9891257068290561	15.85080469769465	16	21002	10	0.9891257068290561	1.4880382775119618
ecg0606	70	10	12	0.300388671481337	140	23808	5	0.900391474554154	10.747716398434102	21	21662	5	0.900391474554154	1.4867333623314485
ecg0606	70	12	2	0.6153129996051476	114	11052	14	0.9921705089169204	23.0656807307525	9	9388	14	0.9921705089169204	1.8834275772074816
ecg0606	70	12	3	0.5064735267639731	186	17388	16	1.0	24.17790343627664	11	14524	16	1.0	1.528490648107873
ecg0606	70	12	4	0.42734462231974013	209	22524	15	0.9986950848194868	25.05611135276207	10	18836	15	0.9986950848194868	1.7477163984341018
ecg0606	70	12	5	0.390257811594507	211	24968	13	0.9673771204871683	21.17442366246194	11	21136	12	0.9673771204871683	1.7146585471944324
ecg0606	70	12	6	0.3587772395883121	198	25916	13	0.9391039582427142	19.357111787733796	14	22332	12	0.9391039582427142	1.4963027403218792
ecg0606	70	12	7	0.33620695858522753	200	27108	12	0.9421487603305785	18.77511961722488	12	23516	12	0.9421487603305785	1.5563288386254894
ecg0606	70	12	8	0.31691823153429016	186	27780	11	0.9103958242714224	16.6820356676816	13	24404	9	0.9103958242714224	1.553284036537625
ecg0606	70	12	9	0.2999456022230195	172	27668	11	0.903871248368856	15.660287081339712	18	24676	11	0.903871248368856	1.709873858199217
ecg0606	70	12	10	0.29237343689388023	144	28020	10	0.9460635058721183	11.110047846889952	19	25396	10	0.9460635058721183	1.5189212701174424
ecg0606	70	12	12	0.27583703469346965	114	27896	8	0.8851674641148325	8.82557633753806	20	25968	8	0.8851674641148325	1.5759025663331883
ecg0606	70	14	2	0.5951889723479054	135	14804	15	0.9960852544584602	24.588081774684646	6	12452	15	0.9960852544584602	1.5593736407133536
ecg0606	70	14	3	0.48643770916778495	191	22478	14	0.9752066115702479	25.394954327968684	10	19010	14	0.9752066115702479	1.6341887777294475
ecg0606	70	14	4	0.40589793590886836	188	26192	14	0.9913005654632449	23.72248803827751	8	22372	14	0.9913005654632449	1.7803392779469334
ecg0606	70	14	5	0.3700080681463508	223	32048	12	0.9917355371900827	21.498477598956068	12	27510	12	0.9917355371900827	1.7342322749021313
ecg0606	70	14	6	0.3390162339160837	210	32554	8	0.9034362766420183	18.491083079599825	16	28322	8	0.9034362766420183	1.5228360156589822
ecg0606	70	14	7	0.3160367959104473	184	32524	11	0.9491083079599826	15.729882557633754	15	28702	11	0.9491083079599826	1.6398434101783383
ecg0606	70	14	8	0.29723677544499894	150	32772	13	0.9560678555893867	13.579382340147891	13	29606	13	0.9560678555893867	1.4854284471509351
ecg0606	70	14	9	0.2790160994709784	158	33076	10	0.8934319269247499	13.725532840365377	16	29870	9	0.8934319269247499	1.5824271422357548
ecg0606	70	14	10	0.27062184097713504	125	32780	6	0.8786428882122662	9.192692474989126	19	30202	6	0.8786428882122662	1.5537190082644627
ecg0606	70	14	12	0.2543724094199785	95	32328	5	0.864723792953458	6.765115267507612	20	30518	5	0.864723792953458	1.3940843845150066
ecg0606	70	16	2	0.5818470662995779	149	17612	15	0.994780339277947	23.731622444541106	7	14592	14	0.994780339277947	1.7333623314484559
ecg0606	70	16	3	0.47361980739101706	215	28896	14	0.9830361026533275	26.408003479773814	11	24300	11	0.9830361026533275	1.606785558938669
ecg0606	70	16	4	0.3926693928280094	204	33904	15	0.9843410178338408	23.531535450195737	7	29256	15	0.9843410178338408	1.6911700739451936
ecg0606	70	16	5	0.35611940848568036	205	36836	11	0.9451935624184428	19.123966942148762	11	32056	11	0.9451935624184428	1.7959982601130926
ecg0606	70	16	6	0.32568375636153657	184	38020	10	0.9082209656372335	15.307959982601131	15	33560	10	0.9082209656372335	1.4227925184862984
ecg0606	70	16	7	0.30336852379920953	164	37420	9	0.9573727707698999	13.484123531970422	17	33772	9	0.9573727707698999	1.7068290561113528
ecg0606	70	16	8	0.28409702160113104	137	37140	12	0.9508481948673336	11.31970421922575	16	34024	12	0.9508481948673336	1.791648542844715
ecg0606	70	16	9	0.2657960219793536	137	37740	6	0.8925619834710744	10.404088734232275	18	34616	6	0.8925619834710744	1.4245324053936494
ecg0606	70	16	10	0.2574625903602045	97	36868	10	0.8816876903001305	7.143105698129622	22	34804	10	0.8816876903001305	1.5819921705089168
ecg0606	70	16	12	0.2404391491052819	58	36260	4	0.7042192257503262	3.9338842975206614	19	35108	3	0.7042192257503262	1.1470204436711613
ecg0606	70	18	2	0.5707666948905887	181	24782	15	0.9969551979121357	27.147455415398	8	20766	15	0.9969551979121357	1.781209221400609
ecg0606	70	18	3	0.46267245651711947	205	32474	14	0.976946498477599	23.67420617659852	12	27500	14	0.976946498477599	1.9512831665941714
ecg0606	70	18	4	0.38146395941067657	209	39150	15	0.9899956502827316	22.357546759460636	12	33738	15	0.9899956502827316	1.58721183123097
ecg0606	70	18	5	0.34464615901200135	178	41570	12	0.9090909090909091	16.06785558938669	14	36856	8	0.9090909090909091	1.6259243149195302
ecg0606	70	18	6	0.3147168826584494	162	42312	10	0.903871248368856	13.31970421922575	16	37980	10	0.903871248368856	1.6715963462374945
ecg0606	70	18	7	0.2919438808121665	138	42102	7	0.9434536755110918	10.934754240974337	17	38446	7	0.9434536755110918	1.518051326663767
ecg0606	70	18	8	0.2727674494102058	114	41394	8	0.8721183123096998	8.609395389299696	20	38570	8	0.8721183123096998	1.7068290561113528
ecg0606	70	18	9	0.2545785356635467	107	41646	8	0.8664636798608091	7.86428882122662	19	38968	8	0.8664636798608091	1.5171813832100913
ecg0606	70	18	10	0.24624789851784484	68	40746	5	0.8112222705524141	4.631143975641583	22	39272	3	0.8112222705524141	1.3940843845150066
ecg0606	70	18	12	0.22928631225803078	45	40408	3	0.7364071335363201	2.8764680295780773	19	39500	3	0.7364071335363201	1.176163549369291
ecg0606	70	20	2	0.563083177631892	184	29660	15	0.9891257068290561	28.244889082209657	7	25124	15	0.9891257068290561	1.6341887777294475
ecg0606	70	20	3	0.45503638585897505	208	37988	14	0.9747716398434102	24.220095693779903	12	32548	12	0.9747716398434102	1.946933449325794
ecg0606	70	20	4	0.3735962983752844	216	44708	14	0.9665071770334929	21.485863418877774	10	38708	14	0.9665071770334929	1.7725097868638537
ecg0606	70	20	5	0.3364697111131349	176	46276	12	0.9195302305350153	14.787733797303176	18	41172	10	0.9195302305350153	1.4954327968682035
ecg0606	70	20	6	0.30694599936970784	152	47092	6	0.9090909090909091	11.233144845585038	19	42764	6	0.9090909090909091	1.5776424532405393
ecg0606	70	20	7	0.2845146661456526	120	46148	6	0.9147455415397999	9.224880382775119	22	42868	6	0.9147455415397999	1.6454980426272292
ecg0606	70	20	8	0.26495860269214216	105	45864	8	0.8542844715093519	7.8351457155284905	20	43120	7	0.8542844715093519	1.5511091779034363
ecg0606	70	20	9	0.24660561563400007	84	45896	6	0.789908655937364	5.944758590691605	21	43792	4	0.789908655937364	1.359721618094824
ecg0606	70	20	10	0.2381267043714948	58	45008	5	0.797303175293606	4.106133101348412	19	43704	5	0.797303175293606	1.3018703784254024
ecg0606	70	20	12	0.22112791666025078	33	44840	3	0.569377990430622	2.012614180078295	14	44144	2	0.569377990430622	0.8046976946498478
ecg0606	70	22	2	0.5531025875910837	203	32794	15	0.996520226185298	25.557633753806	9	27228	15	0.996520226185298	1.7607655502392345
ecg0606	70	22	3	0.44509930286852395	230	46468	14	0.9743366681165724	25.57894736842105	12	39792	14	0.9743366681165724	1.8290561113527621
ecg0606	70	22	4	0.36325400313057665	191	48894	15	0.9373640713353631	18.903871248368855	12	43052	15	0.9373640713353631	1.5806872553284037
ecg0606	70	22	5	0.3265335136980691	167	51542	6	0.898651587646803	12.744671596346237	17	46166	6	0.898651587646803	1.60852544584602
ecg0606	70	22	6	0.2969178951622022	129	51236	7	0.9478033927794693	9.124401913875598	23	47166	7	0.9478033927794693	1.51935624184428
ecg0606	70	22	7	0.27459067574797	111	51220	6	0.8638538494997825	8.03479773814702	20	47756	6	0.8638538494997825	1.484123531970422
ecg0606	70	22	8	0.25516724776095656	95	50544	8	0.8412353197042193	6.714223575467595	20	47748	8	0.8412353197042193	1.489343192692475
ecg0606	70	22	9	0.23644145098802288	71	49964	5	0.7629404088734232	5.025663331883427	21	48088	3	0.7629404088734232	1.3305785123966942
ecg0606	70	22	10	0.2278981299993616	36	49048	4	0.6589821661591997	2.35276207046542	18	48346	3	0.6589821661591997	1.1117877337973032
ecg0606	70	22	12	0.21084319033391558	18	48782	3	0.41104828186167897	1.1135276207046543	12	48518	3	0.41104828186167897	0.7429317094388864
ecg0606	70	24	2	0.5465306982150065	222	39260	15	0.9973901696389734	28.08699434536755	8	32748	15	0.9973901696389734	1.8033927794693345
ecg0606	70	24	3	0.43851640735716646	223	49204	14	0.9730317529360591	23.336668116572422	13	42004	13	0.9730317529360591	1.7329273597216182
ecg0606	70	24	4	0.3567236440586933	202	55828	15	0.9817311874728143	19.224010439321443	11	49280	15	0.9817311874728143	1.5493692909960852
ecg0606	70	24	5	0.31982458922629114	152	56072	9	0.9047411918225315	12.117442366246195	16	50724	9	0.9047411918225315	1.5271857329273597
ecg0606	70	24	6	0.29033936719363107	125	56036	7	0.8721183123096998	9.043932144410613	19	51768	6	0.8721183123096998	1.3375380600260982
ecg0606	70	24	7	0.26807470574813486	97	55000	9	0.8277511961722488	6.969551979121357	20	51924	9	0.8277511961722488	1.4606350587211832
ecg0606	70	24	8	0.24873858105179691	67	54224	6	0.7968682035667681	4.9143105698129625	17	52224	6	0.7968682035667681	1.3018703784254024
ecg0606	70	24	9	0.2296552554539776	68	54252	4	0.7520661157024794	4.564158329708569	21	52356	3	0.7520661157024794	1.393214441061331
ecg0606	70	24	10	0.22127368566140868	41	53484	3	0.688560243584167	2.54458460200087	19	52588	3	0.688560243584167	1.1470204436711613
ecg0606	70	24	12	0.20412384945643786	19	53348	2	0.4354066985645933	1.1143975641583297	12	53032	2	0.4354066985645933	0.6811657242279252
ecg0606	70	26	2	0.5406145625108586	230	46930	15	0.9939103958242714	30.578077424967375	9	39574	14	0.9939103958242714	1.8529795563288387
ecg0606	70	26	3	0.4325462921865354	238	56126	14	0.9573727707698999	24.671596346237493	16	48344	13	0.9573727707698999	1.911265767725098
ecg0606	70	26	4	0.3504467620939218	182	60540	15	0.9826011309264898	16.981296215745978	15	53990	15	0.9826011309264898	1.5263157894736843
ecg0606	70	26	5	0.3137298417733243	126	59828	9	0.8969117007394519	9.909525880817746	19	55144	5	0.8969117007394519	1.3993040452370595
ecg0606	70	26	6	0.28447415232018397	99	59994	4	0.841670291431057	6.6746411483253585	21	56488	3	0.841670291431057	1.3336233144845584
ecg0606	70	26	7	0.2619337407446254	84	59118	8	0.8394954327968682	5.774684645498042	22	56400	5	0.8394954327968682	1.4906481078729883
ecg0606	70	26	8	0.24261739791944015	53	58174	6	0.7520661157024794	4.010004349717268	18	56640	6	0.7520661157024794	1.3953892996955197
ecg0606	70	26	9	0.2236278473176483	56	58460	5	0.6385384949978251	3.983906046107003	17	56850	4	0.6385384949978251	1.1796433231839931
ecg0606	70	26	10	0.2150411105484487	23	57584	4	0.5337103088299261	1.549804262722923	15	57212	4	0.5337103088299261	0.9299695519791213
ecg0606	70	26	12	0.1977754904032132	13	57814	2	0.3618964767290126	0.742061765985211	9	57628	2	0.3618964767290126	0.4941278816876903
ecg0606	70	28	2	0.5379192680495222	235	50592	15	0.9943453675511091	27.167029143105697	9	42256	15	0.9943453675511091	1.7964332318399303
ecg0606	70	28	3	0.4300378608724047	219	62888	12	0.9704219225750326	22.742931709438885	15	54800	12	0.9704219225750326	1.7742496737712048
ecg0606	70	28	4	0.3475117326403734	161	65560	14	0.9573727707698999	14.760330578512397	14	59248	14	0.9573727707698999	1.5271857329273597
ecg0606	70	28	5	0.3108106820224954	112	64504	9	0.9016963897346673	8.114832535885167	20	60192	9	0.9016963897346673	1.4884732492387995
ecg0606	70	28	6	0.2816440452413283	83	63816	4	0.8547194432361896	5.649847759895607	21	60824	4	0.8547194432361896	1.3649412788168769
ecg0606	70	28	7	0.25911007981272216	75	63196	4	0.768595041322314	5.1378860374075686	20	60860	4	0.768595041322314	1.4541104828186169
ecg0606	70	28	8	0.23983348968693954	46	62172	6	0.6894301870378425	3.318834275772075	19	60948	6	0.6894301870378425	1.4532405393649412
ecg0606	70	28	9	0.22098100104712512	53	62816	3	0.6637668551544149	3.384949978251414	20	61280	3	0.6637668551544149	1.2105263157894737
ecg0606	70	28	10	0.21221120835809495	20	61944	4	0.5132666376685515	1.298825576337538	14	61632	4	0.5132666376685515	0.8964767290126142
ecg0606	70	28	12	0.19491232308344264	9	62236	2	0.2892561983471074	0.4949978251413658	7	62124	2	0.2892561983471074	0.3714658547194432
ecg0606	70	30	2	0.5314242151158066	244	58328	15	0.9960852544584602	28.742931709438885	10	49254	15	0.9960852544584602	1.5928664636798608
ecg0606	70	30	3	0.42347771757963487	224	68216	14	0.9604175728577642	23.031317964332317	14	59386	12	0.9604175728577642	1.5332753371030883
ecg0606	70	30	4	0.3411300225678622	174	69772	13	0.959112657677251	15.237929534580251	17	62926	13	0.959112657677251	1.5271857329273597
ecg0606	70	30	5	0.30430331537612004	112	69294	8	0.8869073510221835	8.248803827751196	21	64744	4	0.8869073510221835	1.4675946063505871
ecg0606	70	30	6	0.27509928240269077	72	67876	4	0.7872988255763376	4.853849499782514	19	65268	4	0.7872988255763376	1.3031752936059156
ecg0606	70	30	7	0.25277111435938243	64	67440	5	0.7707698999565028	4.374510656807307	21	65224	4	0.7707698999565028	1.4280121792083516
ecg0606	70	30	8	0.23333540882136072	35	66342	9	0.6598521096128752	2.5750326228795126	15	65376	9	0.6598521096128752	1.2370595911265767
ecg0606	70	30	9	0.2143144551595697	45	67144	4	0.6207046541974771	2.856024358416703	18	65810	3	0.6207046541974771	1.0852544584602002
ecg0606	70	30	10	0.20569120464005713	24	66652	3	0.5297955632883863	1.4567203131796433	14	66104	2	0.5297955632883863	0.8064375815571988
ecg0606	70	30	12	0.18847831061107995	9	66678	2	0.21052631578947367	0.4949978251413658	7	66558	2	0.21052631578947367	0.3714658547194432
ecg0606	90	2	2	1.1333495692881494	6	160	31	0.9973901696389734	5.3605915615485	2	128	31	0.9973901696389734	1.690300130491518
ecg0606	90	2	3	0.8857076011935607	7	130	22	0.9917355371900827	5.410178338408003	2	98	15	0.9917355371900827	1.4032187907785993
ecg0606	90	2	4	0.8267905079541504	6	164	31	0.9973901696389734	5.328403653762505	2	132	31	0.9973901696389734	1.6837755545889517
ecg0606	90	2	5	0.8054801038722224	8	288	31	0.994780339277947	7.843410178338408	2	244	31	0.994780339277947	1.3479773814702045
ecg0606	90	2	6	0.7861196710323115	12	348	31	0.9973901696389734	8.163114397564158	2	276	31	0.9973901696389734	1.5828621139625925
ecg0606	90	2	7	0.7634863297813853	8	284	31	0.9995650282731623	7.81600695954763	3	248	31	0.9995650282731623	1.5841670291431056
ecg0606	90	2	8	0.7515216497485853	11	350	31	0.9973901696389734	9.618964767290127	3	296	28	0.9973901696389734	1.5937364071335363
ecg0606	90	2	9	0.7499324661439981	14	422	31	0.9986950848194868	11.037407568508048	2	342	31	0.9986950848194868	1.6146150500217487
ecg0606	90	2	10	0.7351108525726683	15	240	31	0.9973901696389734	10.62809917355372	4	172	26	0.9973901696389734	2.2496737712048716
ecg0606	90	2	12	0.7269213777541438	16	494	31	1.0	13.781209221400609	3	406	31	1.0	3.1374510656807306
ecg0606	90	4	2	0.8474845229493086	36	1292	26	0.9973901696389734	11.904306220095695	6	1052	24	0.9973901696389734	1.8116572422792518
ecg0606	90	4	3	0.71330793102659	41	1552	29	0.9991300565463245	15.934754240974337	4	1256	16	0.9991300565463245	1.8590691605045673
ecg0606	90	4	4	0.686234539674979	81	3164	29	0.9969551979121357	22.793388429752067	4	2548	29	0.9969551979121357	1.3784254023488474
ecg0606	90	4	5	0.6467284280642279	94	3360	18	1.0	22.65724227925185	10	2688	18	1.0	1.8229665071770336
ecg0606	90	4	6	0.6041638251561717	97	3604	16	0.9939103958242714	22.437581557198783	5	2868	15	0.9939103958242714	1.3658112222705525
ecg0606	90	4	7	0.5929713317426697	125	4460	15	1.0	26.61374510656807	10	3540	15	1.0	1.8555893866898652
ecg0606	90	4	8	0.5884646095788624	137	4904	15	0.9986950848194868	25.48673336233145	7	3864	15	0.9986950848194868	1.7694649847759896
ecg0606	90	4	9	0.5756725968583859	160	5520	14	0.9991300565463245	27.671596346237493	8	4304	14	0.9991300565463245	1.9173553719008265
ecg0606	90	4	10	0.5699570176419589	156	5636	15	0.998260113092649	25.904306220095695	7	4444	14	0.998260113092649	1.7612005219660722
ecg0606	90	4	12	0.5542786681607776	186	6720	15	0.998260113092649	30.284036537625056	6	5280	15	0.998260113092649	1.465854719443236
ecg0606	90	6	2	0.7842065365879012	61	3070	26	0.9952153110047847	17.214441061331012	5	2526	26	0.9952153110047847	1.8651587646802958
ecg0606	90	6	3	0.637715515139248	65	3308	20	0.9978251413658112	19.406698564593302	6	2714	14	0.9978251413658112	1.8538494997825141
ecg0606	90	6	4	0.575991965218151	122	6304	15	0.9908655937364071	26.436276642018267	6	5144	15	0.9908655937364071	1.6080904741191822
ecg0606	90	6	5	0.5390803437997137	153	7918	15	0.9991300565463245	25.784254023488472	5	6376	15	0.9991300565463245	1.3784254023488474
ecg0606	90	6	6	0.49635762401936323	149	7814	14	0.9847759895606786	27.14919530230535	8	6366	13	0.9847759895606786	1.9473684210526316
ecg0606	90	6	7	0.47627373655365174	169	9254	15	0.9986950848194868	29.060896041757285	5	7548	15	0.9986950848194868	1.3566768160069596
ecg0606	90	6	8	0.4706960356404314	179	10226	14	0.9634623749456286	27.57503262287951	8	8438	14	0.9634623749456286	1.5467594606350588
ecg0606	90	6	9	0.4552608879669708	192	11088	14	0.9582427142235754	31.425837320574164	8	9156	13	0.9582427142235754	1.441061331013484
ecg0606	90	6	10	0.4537784533435998	211	11832	11	0.9969551979121357	28.46324488908221	10	9690	11	0.9969551979121357	1.685080469769465
ecg0606	90	6	12	0.44217916524769924	194	12124	14	0.9578077424967377	25.52892561983471	10	10134	14	0.9578077424967377	1.9208351457155284
ecg0606	90	8	2	0.7329662139786377	76	5536	15	0.9913005654632449	20.16485428447151	6	4712	13	0.9913005654632449	1.325358851674641
ecg0606	90	8	3	0.5951885443450049	102	6964	15	0.9991300565463245	28.244889082209657	5	5756	15	0.9991300565463245	1.5706829056111353
ecg0606	90	8	4	0.5282118734621142	143	10432	15	0.9991300565463245	27.25184862983906	6	8724	15	0.9991300565463245	1.4976076555023923
ecg0606	90	8	5	0.49315784032899357	174	13092	15	0.9952153110047847	31.082209656372335	6	10912	15	0.9952153110047847	1.6881252718573292
ecg0606	90	8	6	0.4516164304656284	211	14704	14	0.9986950848194868	31.565028273162245	7	12052	14	0.9986950848194868	1.6372335798173119
ecg0606	90	8	7	0.42502386940907766	184	14524	14	0.9695519791213572	29.890822096563724	6	12232	14	0.9695519791213572	1.534145280556764
ecg0606	90	8	8	0.4157643491235373	203	16308	14	0.9582427142235754	25.09090909090909	11	13684	14	0.9582427142235754	1.692474989125707
ecg0606	90	8	9	0.3939738363763172	191	16724	15	0.9638973466724663	30.254023488473248	7	14292	15	0.9638973466724663	1.975206611570248
ecg0606	90	8	10	0.3886051590667904	209	18096	12	0.9782514136581122	25.409308394954326	11	15344	12	0.9782514136581122	1.5206611570247934
ecg0606	90	8	12	0.3751248553441103	185	18220	10	0.9569377990430622	21.42453240539365	13	15860	10	0.9569377990430622	1.394954327968682
ecg0606	90	10	2	0.696873266458139	99	8378	14	0.9960852544584602	25.374945628534146	6	7148	13	0.9960852544584602	1.5558938668986515
ecg0606	90	10	3	0.5615104319440383	117	9308	15	0.9943453675511091	25.793388429752067	7	7636	15	0.9943453675511091	2.4219225750326228
ecg0606	90	10	4	0.49212487071358557	171	15798	15	0.9986950848194868	30.662461939973902	7	13274	15	0.9986950848194868	1.6615919965202262
ecg0606	90	10	5	0.45649993044302867	216	19542	14	0.9739016963897347	31.785993910395824	8	16342	14	0.9739016963897347	1.5154414963027403
ecg0606	90	10	6	0.4180064410704515	212	20510	13	0.9886907351022184	30.941713788603742	8	17342	13	0.9886907351022184	1.5084819486733363
ecg0606	90	10	7	0.39153596051351286	239	22690	13	0.9913005654632449	32.03871248368856	10	19052	13	0.9913005654632449	1.5171813832100913
ecg0606	90	10	8	0.38125780407357684	216	23216	12	0.9599826011309265	25.595911265767725	12	19790	12	0.9599826011309265	1.5915615484993475
ecg0606	90	10	9	0.3589415606687716	191	22968	12	0.9547629404088734	26.21705089169204	10	20002	12	0.9547629404088734	1.7594606350587212
ecg0606	90	10	10	0.34896218186022865	194	23738	14	0.9456285341452806	21.88386254893432	9	20626	14	0.9456285341452806	1.3562418442801218
ecg0606	90	10	12	0.3355518265526756	152	23680	7	0.925184862983906	14.985210961287516	15	21228	7	0.925184862983906	1.4667246628969117
ecg0606	90	12	2	0.6713594179049502	123	11968	14	0.9995650282731623	23.585906916050458	6	10032	14	0.9995650282731623	1.359286646367986
ecg0606	90	12	3	0.5375230660281156	144	15780	15	0.9952153110047847	31.97738147020444	5	13396	15	0.9952153110047847	1.747281426707264
ecg0606	90	12	4	0.46507682337276907	192	21152	15	0.9843410178338408	28.967377120487168	6	17768	15	0.9843410178338408	1.5367551109177904
ecg0606	90	12	5	0.4305249087623436	190	23772	12	0.9913005654632449	24.510221835580687	11	20308	12	0.9913005654632449	1.8351457155284907
ecg0606	90	12	6	0.39313221102561624	196	25264	13	0.9356241844280122	25.671161374510657	10	21776	9	0.9356241844280122	1.5933014354066986
ecg0606	90	12	7	0.3658893361160585	222	27516	10	0.9943453675511091	26.696389734667246	13	23508	10	0.9943453675511091	1.5467594606350588
ecg0606	90	12	8	0.3572564885578081	169	27320	10	0.9473684210526315	18.653762505437147	12	24184	10	0.9473684210526315	1.8334058286211397
ecg0606	90	12	9	0.33286909560549377	204	28692	11	0.9151805132666376	22.564593301435405	12	24884	10	0.9151805132666376	1.5093518921270117
ecg0606	90	12	10	0.32352614828534454	158	28284	7	0.9117007394519356	15.826446280991735	13	25228	7	0.9117007394519356	1.4710743801652892
ecg0606	90	12	12	0.3090994622778193	120	28020	7	0.9086559373640714	10.96694214876033	17	25828	4	0.9086559373640714	1.4688995215311005
ecg0606	90	14	2	0.6492820753423881	144	14988	14	0.996520226185298	29.618529795563287	7	12532	12	0.996520226185298	1.6363636363636365
ecg0606	90	14	3	0.5172834495903373	166	19340	14	0.982166159199652	28.78164419312745	7	16268	14	0.982166159199652	1.735102218355807
ecg0606	90	14	4	0.4430415934362661	207	26012	12	0.9699869508481949	27.074380165289256	10	21876	8	0.9699869508481949	1.7603305785123966
ecg0606	90	14	5	0.4081893031739151	217	29932	13	0.9356241844280122	27.462809917355372	9	25388	13	0.9356241844280122	1.5893866898651587
ecg0606	90	14	6	0.3715061407055641	207	31098	10	0.9882557633753806	23.11222270552414	11	26610	10	0.9882557633753806	1.6285341452805568
ecg0606	90	14	7	0.34501348775181107	181	31182	10	0.9673771204871683	20.17268377555459	10	27224	10	0.9673771204871683	1.469769464984776
ecg0606	90	14	8	0.3355360934187334	140	31938	6	0.9347542409743367	13.802087864288822	15	28948	3	0.9347542409743367	1.3484123531970422
ecg0606	90	14	9	0.311556779672511	152	31600	11	0.9103958242714224	17.336668116572422	13	28438	11	0.9103958242714224	1.7146585471944324
ecg0606	90	14	10	0.30095330514862506	144	32598	7	0.9286646367986081	13.774249673771205	13	29480	7	0.9286646367986081	1.3471074380165289
ecg0606	90	14	12	0.2867546779736738	87	31648	4	0.9069160504567203	7.827751196172249	18	29896	4	0.9069160504567203	1.6294040887342323
ecg0606	90	16	2	0.6335409949826026	156	20324	14	0.9921705089169204	29.65506742061766	6	17252	14	0.9921705089169204	1.3410178338408003
ecg0606	90	16	3	0.501909922851393	158	23188	15	0.9926054806437582	26.140060896041756	5	19864	15	0.9926054806437582	1.373640713353632
ecg0606	90	16	4	0.42722709818304316	199	32364	11	0.9617224880382775	25.94214876033058	10	27756	7	0.9617224880382775	1.5493692909960852
ecg0606	90	16	5	0.3923722265814147	209	36072	10	0.9686820356676816	22.971291866028707	11	30828	10	0.9686820356676816	1.551544149630274
ecg0606	90	16	6	0.3560712264642789	180	36484	9	0.9260548064375815	19.26185297955633	12	32092	9	0.9260548064375815	1.3884297520661157
ecg0606	90	16	7	0.329746800984896	170	36508	8	0.9277946933449326	17.642888212266204	11	32380	8	0.9277946933449326	1.2314049586776858
ecg0606	90	16	8	0.3205019748475758	88	35452	8	0.9143105698129621	8.104393214441062	15	33356	8	0.9143105698129621	1.5480643758155719
ecg0606	90	16	9	0.2957136120195686	135	36916	11	0.9073510221835581	15.458460200086995	13	33768	11	0.9073510221835581	1.5093518921270117
ecg0606	90	16	10	0.28529351308144163	94	36608	7	0.8877772944758591	8.66463679860809	18	34440	2	0.8877772944758591	1.3492822966507176
ecg0606	90	16	12	0.270993964462963	71	36232	4	0.8842975206611571	6.069595476294041	19	34712	3	0.8842975206611571	1.5058721183123096
ecg0606	90	18	2	0.6185714069306025	189	25178	14	0.9843410178338408	30.69377990430622	8	21028	14	0.9843410178338408	1.483688560243584
ecg0606	90	18	3	0.488221771694502	180	28118	14	0.9382340147890387	32.917355371900825	7	23864	14	0.9382340147890387	1.6167899086559374
ecg0606	90	18	4	0.410945873070747	239	39334	11	0.9621574597651152	27.394954327968684	11	32988	11	0.9621574597651152	1.5489343192692475
ecg0606	90	18	5	0.37680118607997	186	41416	8	0.9212701174423662	21.132231404958677	10	36298	8	0.9212701174423662	1.3475424097433666
ecg0606	90	18	6	0.34195089566650916	153	41854	11	0.9151805132666376	15.90691605045672	14	37620	11	0.9151805132666376	1.510656807307525
ecg0606	90	18	7	0.3158583857450088	145	41330	8	0.9169204001739887	14.552849064810788	14	37328	8	0.9169204001739887	1.4293170943888647
ecg0606	90	18	8	0.30590621770735105	86	40766	6	0.8877772944758591	7.742061765985211	18	38542	3	0.8877772944758591	1.4702044367116138
ecg0606	90	18	9	0.28150042924611063	117	41884	7	0.8777729447585907	11.084819486733362	18	38838	4	0.8777729447585907	1.5471944323618965
ecg0606	90	18	10	0.26956716285976234	87	41110	6	0.864723792953458	8.022183558068726	16	38862	4	0.864723792953458	1.4280121792083516
ecg0606	90	18	12	0.2551606095816559	49	40122	6	0.8438451500652457	4.083949543279687	18	39104	6	0.8438451500652457	1.5050021748586342
ecg0606	90	20	2	0.6098913506412071	182	27992	13	0.987385819921705	25.0391474554154	9	23232	13	0.987385819921705	1.725967812092214
ecg0606	90	20	3	0.4798729739094172	195	37088	14	0.9730317529360591	33.39712918660287	8	31960	14	0.9730317529360591	1.4497607655502391
ecg0606	90	20	4	0.40296256714207423	209	44252	11	0.9765115267507612	25.075685080469768	11	38092	11	0.9765115267507612	1.7659852109612875
ecg0606	90	20	5	0.36810963196773405	182	46352	10	0.9299695519791213	19.163549369290998	14	40960	10	0.9299695519791213	1.5885167464114833
ecg0606	90	20	6	0.33303496566245927	158	47008	7	0.9125706829056112	15.165289256198347	15	42184	7	0.9125706829056112	1.4275772074815136
ecg0606	90	20	7	0.3072856728316498	128	46948	6	0.9034362766420183	12.207916485428447	15	43164	4	0.9034362766420183	1.2305350152240104
ecg0606	90	20	8	0.29787285087311743	66	44848	4	0.8777729447585907	5.75772074815137	16	43072	4	0.8777729447585907	1.508916920400174
ecg0606	90	20	9	0.2731345102276977	111	46516	7	0.8973466724662897	10.049586776859504	15	43188	6	0.8973466724662897	1.4675946063505871
ecg0606	90	20	10	0.26152307402198344	69	44968	4	0.8703784254023489	6.033927794693345	19	43144	4	0.8703784254023489	1.62983906046107
ecg0606	90	20	12	0.24715857472181496	30	44144	4	0.6785558938668986	2.419747716398434	15	43592	2	0.6785558938668986	1.1109177903436276
ecg0606	90	22	2	0.5996712650451724	204	34810	12	0.9895606785558939	28.058721183123097	9	28876	12	0.9895606785558939	1.4406263592866464
ecg0606	90	22	3	0.4699446551055585	176	38924	14	0.9373640713353631	27.380600260983037	7	33882	14	0.9373640713353631	1.5637233579817311
ecg0606	90	22	4	0.3927457526879806	179	47606	8	0.9699869508481949	19.440191387559807	12	41788	8	0.9699869508481949	1.6289691170073946
ecg0606	90	22	5	0.357827618062757	178	51848	7	0.9408438451500652	18.193562418442802	13	46226	7	0.9408438451500652	1.3458025228360158
ecg0606	90	22	6	0.32316014570884144	143	51798	6	0.9130056546324489	13.60069595476294	15	47066	6	0.9130056546324489	1.38755980861244
ecg0606	90	22	7	0.2966564645908861	115	51162	7	0.9086559373640714	11.08916920400174	17	47408	4	0.9086559373640714	1.510656807307525
ecg0606	90	22	8	0.28794096555465676	42	48646	4	0.8581992170508916	3.5293605915615487	18	47698	4	0.8581992170508916	1.5437146585471944
ecg0606	90	22	9	0.2631240788495264	81	50070	5	0.8660287081339713	7.465854719443236	18	47658	5	0.8660287081339713	1.5863418877772946
ecg0606	90	22	10	0.2514488847909224	51	49210	4	0.8342757720748152	4.324923879947804	16	47850	4	0.8342757720748152	1.307959982601131
ecg0606	90	22	12	0.23681708505861326	21	48398	3	0.6742061765985211	1.6254893431926924	14	48108	2	0.6742061765985211	1.0308829926054806
ecg0606	90	24	2	0.5922593534239121	217	40244	13	0.9926054806437582	30.541974771639843	9	33540	13	0.9926054806437582	2.2836015658982167
ecg0606	90	24	3	0.462980810075735	191	44744	14	0.9682470639408438	27.319269247498912	6	38544	14	0.9682470639408438	1.2005219660722053
ecg0606	90	24	4	0.38527178008394025	168	54032	9	0.9304045237059592	18.02914310569813	13	47912	9	0.9304045237059592	1.5128316659417138
ecg0606	90	24	5	0.350097680547056	151	55808	7	0.9308394954327969	14.803827751196172	14	50352	6	0.9308394954327969	1.4267072640278382
ecg0606	90	24	6	0.31575073579834184	119	55168	5	0.9125706829056112	11.615919965202261	16	51024	5	0.9125706829056112	1.4297520661157024
ecg0606	90	24	7	0.2899322038263117	89	54576	4	0.8890822096563723	7.8616789908655935	18	51588	4	0.8890822096563723	1.5458895171813831
ecg0606	90	24	8	0.2809070318693423	38	52488	4	0.7664201826881253	3.2196607220530664	19	51756	4	0.7664201826881253	1.5885167464114833
ecg0606	90	24	9	0.2557954421396542	68	53924	5	0.8242714223575468	5.999565028273162	20	52000	3	0.8242714223575468	1.5859069160504566
ecg0606	90	24	10	0.24403918916306283	33	53140	3	0.7268377555458895	2.617659852109613	15	52316	3	0.7268377555458895	1.151370160939539
ecg0606	90	24	12	0.22925692968720893	13	52580	3	0.5467594606350588	0.9904306220095693	12	52532	3	0.5467594606350588	0.9112657677250978
ecg0606	90	26	2	0.5848896237353376	228	47766	13	0.9778164419312745	31.64723792953458	8	40000	13	0.9778164419312745	1.681600695954763
ecg0606	90	26	3	0.45595035410190793	199	53348	14	0.9617224880382775	30.622444541104826	7	46796	14	0.9617224880382775	1.551544149630274
ecg0606	90	26	4	0.3778915730629836	167	59112	7	0.9347542409743367	16.554153979991302	12	52504	7	0.9347542409743367	1.3901696389734668
ecg0606	90	26	5	0.3428864232554257	151	60866	5	0.9360591561548499	13.449325793823402	18	55138	5	0.9360591561548499	1.5119617224880382
ecg0606	90	26	6	0.30847720187695515	113	60516	6	0.9064810787298826	9.929969551979122	16	56110	4	0.9064810787298826	1.307959982601131
ecg0606	90	26	7	0.2826315620684526	85	59088	4	0.8447150935189213	7.482383645063071	17	56256	4	0.8447150935189213	1.5471944323618965
ecg0606	90	26	8	0.2738653936856095	16	57050	3	0.5080469769464985	1.2322749021313615	10	56782	3	0.5080469769464985	0.7555458895171814
ecg0606	90	26	9	0.24875889929796202	58	57966	4	0.8181818181818182	5.0500217485863415	20	56320	4	0.8181818181818182	1.5876468029578077
ecg0606	90	26	10	0.23652055811341438	21	57156	3	0.667246628969117	1.624619399739017	14	56814	3	0.667246628969117	1.069595476294041
ecg0606	90	26	12	0.2218651731941651	12	57238	2	0.4254023488473249	0.8716833405828621	9	57082	2	0.4254023488473249	0.6341887777294476
ecg0606	90	28	2	0.5791607103543456	228	50768	12	0.9830361026533275	29.42496737712049	10	42112	12	0.9830361026533275	1.692040017398869
ecg0606	90	28	3	0.4505231000021573	212	58840	14	0.9717268377555459	31.71683340582862	7	51152	11	0.9717268377555459	1.6620269682470639
ecg0606	90	28	4	0.3721150159861971	165	65312	9	0.9360591561548499	15.846020008699435	15	58256	9	0.9360591561548499	1.551544149630274
ecg0606	90	28	5	0.3367947943374963	108	64112	4	0.9190952588081774	9.8064375815572	17	59568	4	0.9190952588081774	1.5067420617659852
ecg0606	90	28	6	0.30275972859163036	106	64564	5	0.8455850369725968	9.460635058721182	18	60380	4	0.8455850369725968	1.5084819486733363
ecg0606	90	28	7	0.2770950326314602	70	63036	4	0.86820356676816	6.088734232274902	18	60604	4	0.86820356676816	1.5080469769464986
ecg0606	90	28	8	0.2681896174257372	23	61384	3	0.6541974771639844	1.8234014789038713	15	60960	3	0.6541974771639844	1.149630274032188
ecg0606	90	28	9	0.24321869079748876	50	62412	4	0.7503262287951283	4.248368856024358	17	60876	4	0.7503262287951283	1.4258373205741626
ecg0606	90	28	10	0.2308933055921707	24	61468	2	0.6346237494562853	1.8234014789038713	16	61020	2	0.6346237494562853	1.1900826446280992
ecg0606	90	28	12	0.21615754032003304	4	61736	2	0.20487168334058287	0.23749456285341453	4	61736	2	0.20487168334058287	0.23749456285341453
ecg0606	90	30	2	0.569577556802926	252	58084	13	0.9834710743801653	29.942583732057415	9	48054	13	0.9834710743801653	1.446715963462375
ecg0606	90	30	3	0.44148862540279693	172	61784	14	0.9669421487603306	26.22488038277512	7	54822	14	0.9669421487603306	1.3623314484558504
ecg0606	90	30	4	0.3616642370896243	140	68626	9	0.9134406263592867	13.833405828621139	14	62860	9	0.9134406263592867	1.5885167464114833
ecg0606	90	30	5	0.32698733038478656	96	67294	5	0.862983906046107	8.721183123097	19	63532	5	0.862983906046107	1.7946933449325795
ecg0606	90	30	6	0.29331188904430305	69	67950	4	0.8499347542409743	6.069160504567203	17	65116	3	0.8499347542409743	1.3484123531970422
ecg0606	90	30	7	0.2671320649608099	80	68382	4	0.747281426707264	6.9151805132666375	13	65324	4	0.747281426707264	1.0352327098738583
ecg0606	90	30	8	0.2585868248402405	14	65788	2	0.4841235319704219	1.0300130491518051	12	65668	2	0.4841235319704219	0.8716833405828621
ecg0606	90	30	9	0.23388608953959109	27	66094	3	0.7085689430187038	2.2588081774684645	15	65426	3	0.7085689430187038	1.1487603305785123
ecg0606	90	30	10	0.22133610555435232	17	66032	2	0.45541539799913006	1.2709873858199217	11	65750	2	0.45541539799913006	0.7916485428447151
ecg0606	90	30	12	0.20653766460012213	4	66144	2	0.23749456285341453	0.23749456285341453	4	66144	2	0.23749456285341453	0.23749456285341453
ecg0606	100	2	2	1.1666759056379217	6	186	37	0.9904306220095693	6.658982166159199	2	154	37	0.9904306220095693	2.0913440626359288
ecg0606	100	2	3	0.832905560731883	4	62	9	0.882557633753806	2.3497172683775553	2	46	9	0.882557633753806	1.183123096998695
ecg0606	100	2	4	0.8342154801241018	7	198	37	0.9904306220095693	6.107872988255763	2	158	37	0.9904306220095693	2.0865593736407133
ecg0606	100	2	5	0.79007056708181	8	172	28	0.9930404523705959	7.206611570247934	2	132	24	0.9930404523705959	1.8364506307090038
ecg0606	100	2	6	0.7731178362925263	8	238	37	0.9904306220095693	6.063070900391475	2	194	37	0.9904306220095693	2.082209656372336
ecg0606	100	2	7	0.7508957793706431	8	292	31	0.9986950848194868	8.390169638973466	2	248	31	0.9986950848194868	1.5076120052196607
ecg0606	100	2	8	0.7446613984679152	12	372	37	0.9956502827316225	8.588516746411484	3	308	37	0.9956502827316225	2.193997390169639
ecg0606	100	2	9	0.7349264284004248	11	352	32	0.9991300565463245	8.004349717268378	2	288	32	0.9991300565463245	1.605045672031318
ecg0606	100	2	10	0.7249113870754174	12	440	37	0.9930404523705959	10.05219660722053	3	376	37	0.9930404523705959	2.1109177903436276
ecg0606	100	2	12	0.7156905812596476	15	522	37	0.9956502827316225	11.194867333623314	3	438	30	0.9956502827316225	1.4762940408873424
ecg0606	100	4	2	0.8740554318145131	30	1132	26	0.9995650282731623	11.689430187037843	6	940	26	0.9995650282731623	2.0187037842540234
ecg0606	100	4	3	0.742459927904592	42	1464	21	0.9973901696389734	15.640713353632014	5	1168	14	0.9973901696389734	2.172683775554589
ecg0606	100	4	4	0.7074668204742935	67	2536	26	0.9995650282731623	20.927794693344932	4	2032	26	0.9995650282731623	2.4810787298825576
ecg0606	100	4	5	0.6606294653075274	93	3144	18	0.9952153110047847	21.910830795998262	5	2440	15	0.9952153110047847	1.6150500217485864
ecg0606	100	4	6	0.6183864515348375	83	3280	15	0.9995650282731623	22.093518921270118	5	2656	15	0.9995650282731623	1.4384515006524576
ecg0606	100	4	7	0.6178475706271679	121	4244	15	0.9995650282731623	26.39930404523706	6	3324	15	0.9995650282731623	1.823836450630709
ecg0606	100	4	8	0.6060812115241705	138	4420	15	0.9995650282731623	27.444976076555022	7	3372	15	0.9995650282731623	2.2148760330578514
ecg0606	100	4	9	0.594557452224727	149	5124	14	0.9986950848194868	27.963027403218792	7	3988	14	0.9986950848194868	1.7659852109612875
ecg0606	100	4	10	0.5923012777987305	155	5472	15	0.996520226185298	27.705089169204	7	4288	15	0.996520226185298	1.8099173553719008
ecg0606	100	4	12	0.5743701131527236	153	5780	14	0.9973901696389734	26.5967812092214	7	4612	14	0.9973901696389734	2.006089604175729
ecg0606	100	6	2	0.8010550453544861	53	2694	28	0.9956502827316225	18.174858634188777	5	2224	14	0.9956502827316225	1.505437146585472
ecg0606	100	6	3	0.6524399456395751	68	3752	15	0.9956502827316225	21.340147890387126	5	3122	15	0.9956502827316225	1.845150065245759
ecg0606	100	6	4	0.5918332489604381	106	5558	15	0.9943453675511091	23.87951283166594	6	4538	15	0.9943453675511091	1.8799478033927794
ecg0606	100	6	5	0.5546854722235139	140	7626	15	0.9995650282731623	30.152240104393215	7	6250	14	0.9995650282731623	1.7994780339277947
ecg0606	100	6	6	0.5117813117601069	154	7832	15	0.9917355371900827	30.46933449325794	5	6300	15	0.9917355371900827	1.492822966507177
ecg0606	100	6	7	0.49714612719749407	159	8748	13	0.9986950848194868	28.214441061331012	6	7150	13	0.9986950848194868	1.9347542409743366
ecg0606	100	6	8	0.4917007335618133	191	10012	14	0.9691170073945193	29.30839495432797	9	8090	14	0.9691170073945193	1.832535885167464
ecg0606	100	6	9	0.4819613949845003	189	10546	13	0.9712918660287081	30.231404958677686	10	8638	13	0.9712918660287081	1.6802957807742496
ecg0606	100	6	10	0.4772148769583048	198	11292	12	0.9986950848194868	31.144845585036972	8	9268	12	0.9986950848194868	1.911265767725098
ecg0606	100	6	12	0.4677635270900751	195	11956	13	0.9682470639408438	27.003044802087864	10	9960	13	0.9682470639408438	1.73640713353632
ecg0606	100	8	2	0.7530119736474378	81	5256	17	0.9934754240974336	21.13571117877338	4	4348	15	0.9934754240974336	1.4688995215311005
ecg0606	100	8	3	0.6110753113729643	91	6684	15	1.0	25.729447585906914	8	5664	15	1.0	1.5724227925184864
ecg0606	100	8	4	0.5452555804111537	125	9260	14	0.9960852544584602	27.88995215311005	7	7764	13	0.9960852544584602	1.9560678555893867
ecg0606	100	8	5	0.5095589354260605	194	13232	14	0.996520226185298	34.446280991735534	8	10880	14	0.996520226185298	1.6076555023923444
ecg0606	100	8	6	0.4673678822366971	178	12840	15	0.9926054806437582	31.907785993910394	6	10608	15	0.9926054806437582	1.6367986080904742
ecg0606	100	8	7	0.4424209623473371	194	14572	14	0.9743366681165724	33.421922575032625	8	12164	14	0.9743366681165724	1.8390604610700305
ecg0606	100	8	8	0.4318464831116796	188	15384	14	0.9647672901261418	28.04871683340583	8	12920	14	0.9647672901261418	1.9225750326228794
ecg0606	100	8	9	0.41306345467855266	200	15952	14	0.9708568943018704	30.521966072205306	11	13444	14	0.9708568943018704	2.321879077859939
ecg0606	100	8	10	0.40590337761971335	193	16904	12	0.9765115267507612	25.02957807742497	10	14384	12	0.9765115267507612	1.5041322314049588
ecg0606	100	8	12	0.3932383374796759	183	17728	13	0.9382340147890387	23.64375815571988	11	15308	13	0.9382340147890387	1.720313179643323
ecg0606	100	10	2	0.7153504303791061	121	7806	14	0.996520226185298	25.822966507177032	8	6224	14	0.996520226185298	1.9160504567203132
ecg0606	100	10	3	0.5786651675758021	111	10244	15	0.9986950848194868	29.53327533710309	5	8688	15	0.9986950848194868	1.5380600260983035
ecg0606	100	10	4	0.5076394197497451	176	15686	14	0.9895606785558939	33.80817746846455	6	13090	14	0.9895606785558939	1.5524140930839496
ecg0606	100	10	5	0.4735702054764682	190	18250	14	0.97868638538495	31.6163549369291	9	15410	11	0.97868638538495	1.56198347107438
ecg0606	100	10	6	0.4335478075325373	213	20158	14	0.9704219225750326	35.2983906046107	6	16900	14	0.9704219225750326	1.5437146585471944
ecg0606	100	10	7	0.4087071365826846	204	21144	14	0.9669421487603306	34.53849499782514	7	18086	14	0.9669421487603306	1.9534580252283602
ecg0606	100	10	8	0.39850294808000164	183	21898	13	0.9647672901261418	26.82731622444541	9	19024	13	0.9647672901261418	1.5933014354066986
ecg0606	100	10	9	0.37678976169141376	231	23382	10	0.964332318399304	31.223575467594607	10	19802	8	0.964332318399304	1.674641148325359
ecg0606	100	10	10	0.3665544174506601	209	23678	10	0.9630274032187908	25.11657242279252	11	20270	9	0.9630274032187908	1.7677250978686385
ecg0606	100	10	12	0.35389454456832775	161	23608	7	0.9277946933449326	18.097868638538493	12	21036	7	0.9277946933449326	1.4967377120487169
ecg0606	100	12	2	0.6879028150157283	123	11512	13	0.9978251413658112	24.463679860809048	8	9608	13	0.9978251413658112	1.9843410178338408
ecg0606	100	12	3	0.5531508942317889	131	14316	15	0.9956502827316225	29.8133971291866	5	12172	15	0.9956502827316225	1.8129621574597652
ecg0606	100	12	4	0.48108789811825314	186	20448	14	0.9917355371900827	31.604175728577644	7	17248	14	0.9917355371900827	1.6541974771639842
ecg0606	100	12	5	0.4449213591942439	222	24224	14	0.9673771204871683	30.95345802522836	10	20232	14	0.9673771204871683	1.729447585906916
ecg0606	100	12	6	0.4073188274454491	223	26540	10	0.9343192692474989	31.000869943453676	9	22492	10	0.9343192692474989	1.6346237494562854
ecg0606	100	12	7	0.38201658535118577	208	26860	10	0.9617224880382775	28.16615919965202	9	23012	10	0.9617224880382775	1.681600695954763
ecg0606	100	12	8	0.37285891552659856	185	28088	9	0.9625924314919531	22.125271857329274	11	24624	9	0.9625924314919531	1.58721183123097
ecg0606	100	12	9	0.3502676310000451	171	27800	13	0.9295345802522836	24.46498477598956	11	24640	12	0.9295345802522836	1.770334928229665
ecg0606	100	12	10	0.33989025454266086	159	28248	9	0.9256198347107438	18.64158329708569	12	25272	9	0.9256198347107438	1.5867768595041323
ecg0606	100	12	12	0.32628212101720006	92	27404	6	0.9156154849934754	9.477163984341018	14	25740	6	0.9156154849934754	1.4519356241844281
ecg0606	100	14	2	0.6660550836947579	121	13394	14	0.9969551979121357	22.81992170508917	7	11192	12	0.9969551979121357	1.8147020443671162
ecg0606	100	14	3	0.5334954671571374	163	18790	15	0.996520226185298	26.68421052631579	7	15642	15	0.996520226185298	1.6267942583732058
ecg0606	100	14	4	0.45928603213049046	184	24784	12	0.9582427142235754	26.926924749891256	8	20956	12	0.9582427142235754	1.9960852544584602
ecg0606	100	14	5	0.4229369530843536	190	29692	12	0.9752066115702479	27.437581557198783	10	25702	12	0.9752066115702479	1.6794258373205742
ecg0606	100	14	6	0.385738555510178	190	29320	8	0.9669421487603306	23.309264897781645	11	25308	8	0.9669421487603306	1.5041322314049588
ecg0606	100	14	7	0.36128180113020947	205	32336	10	0.9451935624184428	24.458895171813833	13	27920	10	0.9451935624184428	1.590691605045672
ecg0606	100	14	8	0.3513734913832403	129	31210	10	0.9273597216180949	14.895171813832102	12	28374	10	0.9273597216180949	1.5032622879512831
ecg0606	100	14	9	0.33025655765055817	163	32252	9	0.921705089169204	17.57503262287951	12	28584	6	0.921705089169204	1.5023923444976077
ecg0606	100	14	10	0.31788953440205026	114	31954	6	0.9360591561548499	12.57764245324054	15	29572	3	0.9360591561548499	1.5832970856894302
ecg0606	100	14	12	0.3043272837370121	76	31662	3	0.9090909090909091	6.778164419312745	16	30102	3	0.9090909090909091	1.4062635928664637
ecg0606	100	16	2	0.6484643005318694	156	20060	13	0.9956502827316225	31.20139190952588	7	16828	12	0.9956502827316225	1.9264897781644192
ecg0606	100	16	3	0.5170256555601517	184	23592	14	0.9943453675511091	29.621139625924314	9	19684	12	0.9943453675511091	2.177468464549804
ecg0606	100	16	4	0.44191324466316606	219	31632	10	0.9669421487603306	28.435406698564595	9	26376	10	0.9669421487603306	1.5058721183123096
ecg0606	100	16	5	0.40588269266502985	207	35348	11	0.9647672901261418	25.084819486733362	12	30344	11	0.9647672901261418	1.6785558938668987
ecg0606	100	16	6	0.36828974146707266	172	34960	10	0.9321444106133101	20.15311004784689	12	30668	10	0.9321444106133101	1.5502392344497609
ecg0606	100	16	7	0.3443938566925563	156	36028	10	0.9343192692474989	18.432796868203567	10	32136	8	0.9343192692474989	1.3210091344062636
ecg0606	100	16	8	0.33482120091854417	103	35280	5	0.9338842975206612	10.506307090039147	14	32768	5	0.9338842975206612	1.4149630274032188
ecg0606	100	16	9	0.3128444986137263	126	35824	7	0.9186602870813397	13.591561548499348	15	32728	7	0.9186602870813397	1.896476729012614
ecg0606	100	16	10	0.3005575598821665	88	35976	4	0.8951718138321009	8.464549804262722	17	33968	3	0.8951718138321009	1.5824271422357548
ecg0606	100	16	12	0.28701311390536094	56	35172	6	0.8668986515876468	5.327098738581992	19	34060	3	0.8668986515876468	1.7185732927359723
ecg0606	100	18	2	0.6348004634971092	181	25692	13	0.9943453675511091	32.49630274032188	8	21480	13	0.9943453675511091	1.8655937364071336
ecg0606	100	18	3	0.5038532512067198	174	28548	15	0.9952153110047847	28.30056546324489	5	24214	15	0.9952153110047847	1.6376685515441496
ecg0606	100	18	4	0.42790271383111383	203	37726	9	0.9417137886037408	26.299260548064375	11	32284	9	0.9417137886037408	1.5102218355806873
ecg0606	100	18	5	0.3918000883036113	168	39610	7	0.9356241844280122	18.72509786863854	12	34876	7	0.9356241844280122	1.5006524575902567
ecg0606	100	18	6	0.3551711224440153	172	41464	7	0.9277946933449326	18.75989560678556	13	36594	7	0.9277946933449326	1.588951718138321
ecg0606	100	18	7	0.33092560025376333	147	41134	11	0.9347542409743367	16.832535885167463	10	37028	11	0.9347542409743367	1.414528055676381
ecg0606	100	18	8	0.32201282728671093	86	40156	6	0.9186602870813397	8.421052631578947	15	37824	5	0.9186602870813397	1.4584602000869944
ecg0606	100	18	9	0.2995641488201024	101	40624	8	0.9286646367986081	10.802087864288822	16	37956	8	0.9286646367986081	1.7168334058286212
ecg0606	100	18	10	0.2867891127389246	60	39932	4	0.8842975206611571	5.902131361461505	17	38566	4	0.8842975206611571	1.4954327968682035
ecg0606	100	18	12	0.27299310378169467	37	39494	4	0.7168334058286211	3.479338842975207	17	38844	4	0.7168334058286211	1.5859069160504566
ecg0606	100	20	2	0.6213760195319258	207	30020	11	0.983906046107003	31.151805132666375	9	24772	10	0.983906046107003	1.6942148760330578
ecg0606	100	20	3	0.49211395662718027	179	35900	15	0.9882557633753806	33.354066985645936	6	31044	15	0.9882557633753806	1.5885167464114833
ecg0606	100	20	4	0.4139078241707321	202	43560	9	0.9625924314919531	24.991300565463245	12	37544	8	0.9625924314919531	1.590691605045672
ecg0606	100	20	5	0.37751586457424124	189	46776	9	0.9321444106133101	22.33362331448456	12	41056	9	0.9321444106133101	1.4980426272292302
ecg0606	100	20	6	0.3421698809113663	142	46500	8	0.9177903436276642	16.157894736842106	11	42188	7	0.9177903436276642	1.4080034797738148
ecg0606	100	20	7	0.31896431011665816	145	46844	4	0.9264897781644194	14.997390169638974	15	42380	4	0.9264897781644194	1.5437146585471944
ecg0606	100	20	8	0.30924206375417707	59	44228	7	0.8303610265332754	5.773814702044367	19	42788	3	0.8303610265332754	1.6350587211831231
ecg0606	100	20	9	0.2873752584970076	66	44692	7	0.8429752066115702	6.609395389299696	16	42948	7	0.8429752066115702	1.628099173553719
ecg0606	100	20	10	0.2734135852193912	52	44752	4	0.7625054371465855	4.9330143540669855	13	43368	3	0.7625054371465855	1.1874728142670727
ecg0606	100	20	12	0.25905544084871224	32	44028	4	0.6663766855154415	2.816876903001305	16	43420	2	0.6663766855154415	1.3214441061331013
ecg0606	100	22	2	0.6130257287578235	189	32844	13	0.9865158764680296	27.498477598956068	8	27202	13	0.9865158764680296	1.8268812527185734
ecg0606	100	22	3	0.48381766145820804	186	40634	14	0.9404088734232275	32.605480643758156	8	35088	13	0.9404088734232275	1.727707698999565
ecg0606	100	22	4	0.40627272523176744	189	49142	9	0.9612875163114397	23.605045672031316	10	42940	9	0.9612875163114397	1.4114832535885167
ecg0606	100	22	5	0.36962288043074876	156	50636	11	0.9299695519791213	18.671596346237493	11	45570	10	0.9299695519791213	1.5397999130056546
ecg0606	100	22	6	0.33366809190722946	119	50834	6	0.9047411918225315	11.857329273597216	14	46808	4	0.9047411918225315	1.3636363636363635
ecg0606	100	22	7	0.3102577337982875	115	51102	4	0.921705089169204	11.550674206176598	14	47252	4	0.921705089169204	1.4080034797738148
ecg0606	100	22	8	0.3013047155801841	38	48256	4	0.8321009134406263	3.6524575902566334	15	47370	4	0.8321009134406263	1.4936929099608525
ecg0606	100	22	9	0.27905799918348495	50	49004	4	0.8525445846020009	4.7990430622009566	15	47626	4	0.8525445846020009	1.4075685080469769
ecg0606	100	22	10	0.26550588164834577	51	48782	4	0.8168769030013049	5.109612875163115	17	47466	4	0.8168769030013049	1.5859069160504566
ecg0606	100	22	12	0.2516455791439461	14	48168	3	0.5493692909960852	1.1861678990865594	10	47992	3	0.5493692909960852	0.8347107438016529
ecg0606	100	24	2	0.6043129405592328	194	39436	12	0.9895606785558939	30.152240104393215	9	33156	12	0.9895606785558939	1.7303175293605915
ecg0606	100	24	3	0.47552685738041617	141	40516	14	0.9373640713353631	23.26968247063941	8	35672	12	0.9373640713353631	1.8734232274902132
ecg0606	100	24	4	0.39776268517723634	181	52980	7	0.9782514136581122	19.17659852109613	14	46364	7	0.9782514136581122	1.5406698564593302
ecg0606	100	24	5	0.36094663161628715	130	55216	6	0.9238799478033928	13.396259243149196	14	50248	5	0.9238799478033928	1.5859069160504566
ecg0606	100	24	6	0.3250039924555517	108	55056	9	0.9047411918225315	11.108307959982602	14	51144	9	0.9047411918225315	1.5850369725967812
ecg0606	100	24	7	0.3015000200005471	91	54876	4	0.9060461070030448	8.853849499782514	14	51660	4	0.9060461070030448	1.4506307090039148
ecg0606	100	24	8	0.29296821945149526	39	52996	3	0.8286211396259243	3.428447150935189	18	52028	3	0.8286211396259243	1.5376250543714658
ecg0606	100	24	9	0.2706738509942866	38	53484	3	0.6668116572422792	3.4301870378425403	12	52316	3	0.6668116572422792	1.010439321444106
ecg0606	100	24	10	0.2570631465022153	19	52364	3	0.6402783819051762	1.626359286646368	15	52172	3	0.6402783819051762	1.2749021313614615
ecg0606	100	24	12	0.2427773534212539	8	52672	2	0.29143105698129623	0.6159199652022619	6	52576	2	0.29143105698129623	0.44019138755980863
ecg0606	100	26	2	0.5970958630156926	222	46714	14	0.9917355371900827	33.10613310134841	10	38836	13	0.9917355371900827	1.6555023923444976
ecg0606	100	26	3	0.4689610908201149	173	48818	13	0.9364941278816877	25.092214006089606	8	42570	13	0.9364941278816877	1.8586341887777293
ecg0606	100	26	4	0.3904870476315765	164	58914	5	0.9130056546324489	17.289256198347108	12	52440	5	0.9130056546324489	1.4123531970421923
ecg0606	100	26	5	0.3536550968636504	97	58952	7	0.9195302305350153	10.351022183558069	14	55032	3	0.9195302305350153	1.3205741626794258
ecg0606	100	26	6	0.31797251218917344	90	59220	5	0.916485428447151	8.802522836015658	15	55672	3	0.916485428447151	1.4958677685950412
ecg0606	100	26	7	0.294672911492208	72	58282	5	0.9069160504567203	7.359286646367986	16	55788	5	0.9069160504567203	1.6272292301000435
ecg0606	100	26	8	0.2860834570849845	22	56858	3	0.6180948238364506	1.8925619834710743	13	56412	2	0.6180948238364506	1.0569812962157459
ecg0606	100	26	9	0.26389962636545744	31	57364	3	0.7551109177903437	2.6807307525010873	15	56532	2	0.7551109177903437	1.2309699869508481
ecg0606	100	26	10	0.24984272869620555	20	56836	3	0.5197912135711179	1.7159634623749456	14	56524	3	0.5197912135711179	1.1887777294475859
ecg0606	100	26	12	0.23554291144360606	7	57006	2	0.2535885167464115	0.5280556763810352	6	56954	2	0.2535885167464115	0.44019138755980863
ecg0606	100	28	2	0.5909793521557051	224	53224	11	0.9812962157459765	31.013919095258807	10	44744	9	0.9812962157459765	1.5441496302740323
ecg0606	100	28	3	0.462940937546388	194	57528	14	0.937799043062201	28.95128316659417	6	49808	14	0.937799043062201	1.5006524575902567
ecg0606	100	28	4	0.3845476414176914	137	63076	6	0.9369290996085254	14.03871248368856	13	57140	6	0.9369290996085254	1.4519356241844281
ecg0606	100	28	5	0.3471820830844319	106	64084	5	0.9056111352762071	10.971291866028707	14	59556	5	0.9056111352762071	1.5384949978251414
ecg0606	100	28	6	0.3118232408242234	72	63096	6	0.9230100043497173	7.2183558068725535	13	60080	6	0.9230100043497173	1.4497607655502391
ecg0606	100	28	7	0.2886661005999349	58	62080	5	0.8625489343192693	5.373205741626794	17	60048	5	0.8625489343192693	1.7137886037407568
ecg0606	100	28	8	0.28017781459372826	18	61220	3	0.5167464114832536	1.5841670291431056	12	60932	3	0.5167464114832536	1.0113092648977817
ecg0606	100	28	9	0.25796259469099847	27	61424	3	0.6628969117007395	2.379295345802523	14	60816	3	0.6628969117007395	1.2309699869508481
ecg0606	100	28	10	0.24388187997435318	17	61220	2	0.6354936929099608	1.4066985645933014	13	60996	2	0.6354936929099608	1.055241409308395
ecg0606	100	28	12	0.22942150980216597	8	61552	3	0.23053501522401043	0.7037842540234884	4	61352	3	0.23053501522401043	0.3514571552849065
ecg0606	100	30	2	0.5851745657775898	208	56266	11	0.980426272292301	26.628099173553718	9	47342	11	0.980426272292301	1.6829056111352763
ecg0606	100	30	3	0.45751050017034234	183	63684	14	0.9712918660287081	31.3871248368856	8	56304	14	0.9712918660287081	1.6289691170073946
ecg0606	100	30	4	0.37871237104256167	124	67060	6	0.916485428447151	12.62200956937799	14	61396	6	0.916485428447151	1.4967377120487169
ecg0606	100	30	5	0.3412858623096238	101	68638	6	0.9256198347107438	9.82557633753806	15	63998	6	0.9256198347107438	1.4101783384080036
ecg0606	100	30	6	0.3061277669957357	54	66566	5	0.8568943018703784	5.198782079164855	15	64460	5	0.8568943018703784	1.5867768595041323
ecg0606	100	30	7	0.2830256447239752	50	66576	3	0.8299260548064376	4.617659852109613	17	64700	3	0.8299260548064376	1.5389299695519791
ecg0606	100	30	8	0.27461840438337753	11	65678	3	0.4580252283601566	0.9678120922140061	9	65584	2	0.4580252283601566	0.702914310569813
ecg0606	100	30	9	0.2523420940407862	15	65432	3	0.5067420617659852	1.275772074815137	12	65252	3	0.5067420617659852	1.0121792083514571
ecg0606	100	30	10	0.23816330166489058	6	65852	2	0.29404088734232275	0.4393214441061331	5	65792	2	0.29404088734232275	0.3514571552849065
ecg0606	100	30	12	0.22364742969244328	3	65896	2	0.12005219660722052	0.17572857764245325	3	65896	2	0.12005219660722052	0.17572857764245325
ecg0606	110	2	2	1.186835984476429	6	186	37	0.9934754240974336	6.966507177033493	2	154	37	0.9934754240974336	2.2701174423662462
ecg0606	110	2	3	0.7821062099043178	1	10	-2147483648	0.0	0.0	1	10	-2147483648	0.0	0.0
ecg0606	110	2	4	0.8385208699534391	6	186	37	0.9934754240974336	6.966507177033493	2	154	37	0.9934754240974336	2.2701174423662462
ecg0606	110	2	5	0.7652904028433248	9	184	25	0.9747716398434102	5.575032622879513	3	140	25	0.9747716398434102	2.0752501087429316
ecg0606	110	2	6	0.7559547807445117	7	202	37	0.9934754240974336	6.441496302740322	2	162	37	0.9934754240974336	2.261418007829491
ecg0606	110	2	7	0.7389493915076946	8	260	26	0.9808612440191388	6.2718573292735975	3	220	26	0.9808612440191388	2.7416267942583734
ecg0606	110	2	8	0.7256818334686106	9	294	37	0.9934754240974336	7.168334058286211	2	246	37	0.9934754240974336	2.256198347107438
ecg0606	110	2	9	0.7208771786599405	9	222	38	0.9817311874728143	9.051326663766854	3	178	38	0.9817311874728143	3.663331883427577
ecg0606	110	2	10	0.7074363263798925	12	368	37	0.9921705089169204	8.810787298825577	2	296	37	0.9921705089169204	2.2127011744236627
ecg0606	110	2	12	0.6968295931722439	12	388	37	0.9913005654632449	8.760765550239235	3	324	37	0.9913005654632449	2.360591561548499
ecg0606	110	4	2	0.9076084500571895	26	936	23	0.987385819921705	12.169204001739887	5	768	15	0.987385819921705	2.079599826011309
ecg0606	110	4	3	0.7555709713698324	36	1424	22	1.0	14.939538929969553	6	1184	22	1.0	2.017833840800348
ecg0606	110	4	4	0.7161131907252267	67	2228	20	0.9986950848194868	20.150935189212703	5	1732	15	0.9986950848194868	2.0543714658547194
ecg0606	110	4	5	0.6710226420903771	72	2288	15	0.9908655937364071	20.341452805567638	5	1752	14	0.9908655937364071	2.2975206611570247
ecg0606	110	4	6	0.6327840270913115	77	2764	15	0.9956502827316225	21.10874293170944	6	2196	13	0.9956502827316225	1.800782949108308
ecg0606	110	4	7	0.6333444837997186	110	3784	14	0.9991300565463245	24.70769899956503	6	2952	13	0.9991300565463245	1.8468899521531101
ecg0606	110	4	8	0.6146815309115269	116	3864	14	0.9956502827316225	26.815137016093953	6	2984	14	0.9956502827316225	1.7690300130491519
ecg0606	110	4	9	0.6100842100455237	143	4692	13	0.9978251413658112	26.99608525445846	7	3604	12	0.9978251413658112	1.8864723792953457
ecg0606	110	4	10	0.6021893538972649	142	4780	14	0.9943453675511091	27.124836885602434	7	3700	14	0.9943453675511091	1.8999565028273162
ecg0606	110	4	12	0.5867379534050643	157	5404	11	0.9913005654632449	28.649847759895607	9	4220	11	0.9913005654632449	2.0695954762940407
ecg0606	110	6	2	0.8211933615792149	51	2724	25	0.9969551979121357	18.491518051326665	5	2268	15	0.9969551979121357	1.6685515441496304
ecg0606	110	6	3	0.6626562177920624	59	3050	16	0.9978251413658112	21.824706394084384	5	2508	15	0.9978251413658112	1.8747281426707263
ecg0606	110	6	4	0.5955007024427761	109	5066	13	0.9904306220095693	22.527620704654197	9	4044	8	0.9904306220095693	2.256198347107438
ecg0606	110	6	5	0.5696334545389833	142	7068	14	0.9991300565463245	29.980861244019138	7	5642	12	0.9991300565463245	1.615484993475424
ecg0606	110	6	6	0.5267203948257657	136	6930	13	0.9882557633753806	29.54023488473249	8	5616	13	0.9882557633753806	2.130491518051327
ecg0606	110	6	7	0.5180839460870648	154	8354	14	1.0	29.115702479338843	12	6864	14	1.0	1.7772944758590692
ecg0606	110	6	8	0.512271815564394	181	9634	14	0.9860809047411918	32.36015658982166	9	7816	9	0.9860809047411918	1.9560678555893867
ecg0606	110	6	9	0.5002306025782347	179	9958	14	0.9986950848194868	34.40191387559808	6	8144	14	0.9986950848194868	2.012179208351457
ecg0606	110	6	10	0.49697092672272086	193	10920	13	0.9834710743801653	29.844280121792085	8	8940	13	0.9834710743801653	1.6146150500217487
ecg0606	110	6	12	0.4819694927939966	182	11214	13	0.9578077424967377	28.24227925184863	8	9348	9	0.9578077424967377	1.6028708133971292
ecg0606	110	8	2	0.7715684559733433	70	4316	15	0.9973901696389734	27.142235754675944	4	3528	14	0.9973901696389734	1.3427577207481514
ecg0606	110	8	3	0.6250565843522584	98	6216	15	0.9986950848194868	24.131361461505	5	5056	15	0.9986950848194868	1.6863853849499784
ecg0606	110	8	4	0.5537597683585458	125	9176	15	0.9978251413658112	32.40495867768595	6	7724	14	0.9978251413658112	1.939538929969552
ecg0606	110	8	5	0.5212134625606034	145	11484	14	0.9904306220095693	30.934754240974335	7	9660	14	0.9904306220095693	1.815137016093954
ecg0606	110	8	6	0.47867083248069286	178	12712	14	0.9978251413658112	33.32883862548935	6	10452	12	0.9978251413658112	2.005654632448891
ecg0606	110	8	7	0.4560923796884965	177	13648	14	0.998260113092649	35.09873858199217	6	11440	14	0.998260113092649	1.6472379295345803
ecg0606	110	8	8	0.44492336895646967	199	14860	14	0.987385819921705	30.428447150935188	9	12284	14	0.987385819921705	1.7220530665506741
ecg0606	110	8	9	0.4283859552995505	170	15080	12	0.973466724662897	29.640278381905176	9	12900	9	0.973466724662897	1.7198782079164854
ecg0606	110	8	10	0.4202095787478988	177	16176	11	0.9765115267507612	28.291866028708135	10	13880	9	0.9765115267507612	1.765115267507612
ecg0606	110	8	12	0.40832091844086127	185	17200	11	0.9408438451500652	24.648542844715095	9	14724	11	0.9408438451500652	1.948238364506307
ecg0606	110	10	2	0.7335830384912628	100	8242	15	0.9978251413658112	29.128751631143977	6	6902	14	0.9978251413658112	1.683340582862114
ecg0606	110	10	3	0.5927683043681766	125	10616	15	0.9995650282731623	31.86646367986081	5	8864	15	0.9995650282731623	1.8229665071770336
ecg0606	110	10	4	0.5207225923563984	169	14604	15	0.9882557633753806	35.499347542409744	7	12204	15	0.9882557633753806	2.0669856459330145
ecg0606	110	10	5	0.4845841409614917	193	17558	14	0.9960852544584602	34.88386254893432	8	14572	12	0.9960852544584602	1.866898651587647
ecg0606	110	10	6	0.44665302092391346	201	19642	14	0.9695519791213572	35.847324923879945	7	16578	11	0.9695519791213572	2.0382775119617227
ecg0606	110	10	7	0.42196168316678717	222	20664	14	0.998260113092649	37.002609830361024	7	17288	14	0.998260113092649	1.7968682035667682
ecg0606	110	10	8	0.4129202742055962	189	21310	10	0.9730317529360591	28.79251848629839	9	18334	10	0.9730317529360591	1.7494562853414528
ecg0606	110	10	9	0.3932957415741498	179	21846	12	0.9739016963897347	28.392779469334492	10	19090	11	0.9739016963897347	1.939538929969552
ecg0606	110	10	10	0.38217610607697466	191	23032	8	0.994780339277947	24.380600260983037	11	19930	8	0.994780339277947	1.69377990430622
ecg0606	110	10	12	0.3692280252269226	149	23096	7	0.9308394954327969	17.71335363201392	13	20760	4	0.9308394954327969	1.4493257938234014
ecg0606	110	12	2	0.7049597652143744	113	11980	14	1.0	31.975641583297087	9	10260	14	1.0	1.628099173553719
ecg0606	110	12	3	0.5687800519667758	143	13980	15	0.9995650282731623	30.710743801652892	6	11612	15	0.9995650282731623	1.8112222705524141
ecg0606	110	12	4	0.49345106070594186	182	20040	14	0.9791213571117877	35.83384080034798	6	16896	14	0.9791213571117877	1.9016963897346673
ecg0606	110	12	5	0.4572808793439883	230	24564	13	0.9752066115702479	34.78164419312745	8	20380	13	0.9752066115702479	1.6546324488908222
ecg0606	110	12	6	0.4202141095370719	217	25808	11	0.9826011309264898	32.49717268377555	9	21824	11	0.9826011309264898	1.5537190082644627
ecg0606	110	12	7	0.39707653874176985	217	27460	13	0.9543279686820356	30.340147890387126	9	23412	13	0.9543279686820356	1.596346237494563
ecg0606	110	12	8	0.386493296760403	187	27972	10	0.9743366681165724	24.432361896476728	9	24420	10	0.9743366681165724	1.594606350587212
ecg0606	110	12	9	0.36752315915935385	204	28684	10	0.9669421487603306	26.066550674206177	11	24796	10	0.9669421487603306	1.6472379295345803
ecg0606	110	12	10	0.35563810835694704	152	28120	6	0.9356241844280122	18.031752936059156	13	25304	6	0.9356241844280122	1.690300130491518
ecg0606	110	12	12	0.341757583779334	99	27396	4	0.9212701174423662	10.852979556328838	14	25524	4	0.9212701174423662	1.5980861244019138
ecg0606	110	14	2	0.6820840249594824	130	15214	14	0.9978251413658112	31.90300130491518	7	12920	14	0.9978251413658112	2.2031317964332318
ecg0606	110	14	3	0.5486380247600996	145	19296	15	0.9856459330143541	36.45106568073075	7	16642	15	0.9856459330143541	1.9904306220095693
ecg0606	110	14	4	0.4713389155531321	204	25496	13	0.9852109612875163	34.51935624184428	7	21380	12	0.9852109612875163	1.8999565028273162
ecg0606	110	14	5	0.4358816871579142	178	27524	13	0.987385819921705	25.006524575902567	10	23660	13	0.987385819921705	1.6976946498477599
ecg0606	110	14	6	0.39758083659503507	204	30948	11	0.987385819921705	28.50195737277077	10	26596	11	0.987385819921705	1.649412788168769
ecg0606	110	14	7	0.3757417498957343	175	31214	9	0.9743366681165724	23.438886472379295	11	27372	9	0.9743366681165724	1.8864723792953457
ecg0606	110	14	8	0.3652089155466144	132	31562	8	0.9360591561548499	16.351457155284905	13	28750	8	0.9360591561548499	1.788603740756851
ecg0606	110	14	9	0.3467090320548944	149	32286	7	0.9295345802522836	18.08568943018704	14	29036	7	0.9295345802522836	1.7451065680730753
ecg0606	110	14	10	0.33356411792898666	101	31832	8	0.9338842975206612	11.530665506742062	13	29618	8	0.9338842975206612	1.4493257938234014
ecg0606	110	14	12	0.31970789947558126	65	31116	4	0.9147455415397999	6.5315354501957374	18	29890	3	0.9147455415397999	1.6950848194867334
ecg0606	110	16	2	0.663787445317692	138	18648	14	0.9960852544584602	29.4688995215311	6	15732	12	0.9960852544584602	1.6276642018268812
ecg0606	110	16	3	0.5321112629627873	154	21844	14	0.9986950848194868	27.31404958677686	5	18348	14	0.9986950848194868	1.571117877337973
ecg0606	110	16	4	0.4532738231404039	181	29056	9	0.9530230535015224	27.85645933014354	9	24824	9	0.9530230535015224	1.458895171813832
ecg0606	110	16	5	0.4179782561871912	176	33596	11	0.9704219225750326	23.66115702479339	11	29168	10	0.9704219225750326	1.7468464549804263
ecg0606	110	16	6	0.3800552275538144	145	33164	9	0.9360591561548499	21.284036537625056	12	29736	8	0.9360591561548499	2.0347977381470206
ecg0606	110	16	7	0.35794755044407656	166	36100	11	0.9438886472379295	20.87994780339278	10	31960	8	0.9438886472379295	1.448455850369726
ecg0606	110	16	8	0.34810975937069133	94	34808	6	0.9243149195302305	10.517181383210092	15	32616	6	0.9243149195302305	1.6433231839930404
ecg0606	110	16	9	0.32880603653434637	109	35024	6	0.9260548064375815	12.603740756850804	14	32404	6	0.9260548064375815	1.7890387124836886
ecg0606	110	16	10	0.3161351178171796	69	34880	5	0.9077859939103958	7.695954762940409	14	33276	5	0.9077859939103958	1.6907351022183559
ecg0606	110	16	12	0.3017177230314436	50	35056	4	0.8038277511961722	5.517616354936929	16	34064	4	0.8038277511961722	1.645933014354067
ecg0606	110	18	2	0.648546843178586	166	23556	13	0.994780339277947	27.96128751631144	8	19408	13	0.994780339277947	1.946498477598956
ecg0606	110	18	3	0.5181400577014419	159	26906	15	0.996520226185298	29.041322314049587	7	22904	15	0.996520226185298	1.9595476294040888
ecg0606	110	18	4	0.4382429706416703	201	34474	8	0.9856459330143541	26.789038712483688	11	29202	8	0.9856459330143541	1.6024358416702915
ecg0606	110	18	5	0.4021946150506905	174	39300	7	0.9569377990430622	21.355371900826448	12	34392	5	0.9569377990430622	1.4549804262722923
ecg0606	110	18	6	0.36534938109562826	144	38580	8	0.9417137886037408	17.363201391909527	12	34416	8	0.9417137886037408	1.7407568508046978
ecg0606	110	18	7	0.3433622636556931	127	40478	8	0.9325793823401479	15.318834275772074	12	36870	8	0.9325793823401479	1.5950413223140496
ecg0606	110	18	8	0.3338985063676323	69	38558	5	0.9069160504567203	7.5576337538060026	16	36902	3	0.9069160504567203	1.5489343192692475
ecg0606	110	18	9	0.3142396152622061	88	39964	5	0.9330143540669856	9.197477163984342	15	37616	4	0.9330143540669856	1.692040017398869
ecg0606	110	18	10	0.3013055592128668	66	39520	4	0.9073510221835581	6.632013919095259	17	37910	2	0.9073510221835581	1.5502392344497609
ecg0606	110	18	12	0.2865333520865372	40	39096	3	0.7951283166594172	4.060896041757286	17	38296	3	0.7951283166594172	1.6437581557198782
ecg0606	110	20	2	0.6371610151755254	189	29672	13	0.9739016963897347	32.24097433666812	9	24696	13	0.9739016963897347	1.9012614180078296
ecg0606	110	20	3	0.5076734329731747	210	35124	15	0.9795563288386255	33.73249238799478	7	29484	14	0.9795563288386255	1.7568508046976947
ecg0606	110	20	4	0.4267924872593144	224	42864	9	0.9699869508481949	29.525880817746845	10	36288	6	0.9699869508481949	1.553284036537625
ecg0606	110	20	5	0.39059638342438663	154	44568	5	0.9573727707698999	17.25619834710744	14	39672	5	0.9573727707698999	1.5989560678555894
ecg0606	110	20	6	0.35423938647237063	154	46140	6	0.9273597216180949	17.838190517616354	14	41308	6	0.9273597216180949	1.5519791213571117
ecg0606	110	20	7	0.3321053805549134	126	45368	7	0.948238364506307	14.683775554588951	13	41536	7	0.948238364506307	1.6454980426272292
ecg0606	110	20	8	0.3234800042557685	59	43616	6	0.877337973031753	6.3888647237929534	18	42168	3	0.877337973031753	1.7912135711178774
ecg0606	110	20	9	0.3037623216703436	54	44044	5	0.8895171813832101	5.853414528055676	15	42644	4	0.8895171813832101	1.4989125706829056
ecg0606	110	20	10	0.2902998610135943	44	44120	3	0.8229665071770335	4.446715963462375	14	42968	3	0.8229665071770335	1.3049151805132666
ecg0606	110	20	12	0.2751633738869154	37	43948	3	0.7372770769899957	3.6755110917790343	15	43164	3	0.7372770769899957	1.4976076555023923
ecg0606	110	22	2	0.624322196089047	195	33762	11	0.9812962157459765	31.180948238364508	8	28000	10	0.9812962157459765	1.8103523270987385
ecg0606	110	22	3	0.4965457945673243	166	38940	15	0.9721618094823836	33.822096563723356	7	33906	15	0.9721618094823836	2.314919530230535
ecg0606	110	22	4	0.41379503275005836	196	48056	7	0.9460635058721183	24.85080469769465	12	41562	7	0.9460635058721183	1.6498477598956067
ecg0606	110	22	5	0.37711238012091314	147	50830	9	0.9204001739886908	18.123531970421922	12	45862	5	0.9204001739886908	1.5010874293170944
ecg0606	110	22	6	0.34129489721139744	135	50618	8	0.9282296650717703	15.60461070030448	13	45970	8	0.9282296650717703	1.7416267942583732
ecg0606	110	22	7	0.32072159153574487	95	50156	4	0.9456285341452806	10.4066985645933	14	46988	4	0.9456285341452806	1.5476294040887342
ecg0606	110	22	8	0.31129970944856966	38	47984	4	0.8534145280556764	3.7746846454980427	16	47142	3	0.8534145280556764	1.5467594606350588
ecg0606	110	22	9	0.29238019294913353	41	48466	3	0.7933884297520661	4.010874293170944	15	47376	3	0.7933884297520661	1.4493257938234014
ecg0606	110	22	10	0.27830890260519703	36	48334	4	0.8234014789038713	3.624619399739017	15	47464	3	0.8234014789038713	1.4493257938234014
ecg0606	110	22	12	0.26228928340180657	16	48116	3	0.43975641583297087	1.4976076555023923	9	47808	3	0.43975641583297087	0.8216615919965202
ecg0606	110	24	2	0.6169562416310399	205	39608	11	0.9682470639408438	31.866898651587647	9	33220	11	0.9682470639408438	1.7986080904741193
ecg0606	110	24	3	0.48914695953048937	204	46856	14	0.9525880817746847	34.692909960852546	9	40476	14	0.9525880817746847	1.905611135276207
ecg0606	110	24	4	0.40719170941000177	186	53988	8	0.9612875163114397	23.790343627664203	11	47148	8	0.9612875163114397	1.6024358416702915
ecg0606	110	24	5	0.37032016997716993	115	54488	7	0.9343192692474989	13.311004784688995	14	50240	5	0.9343192692474989	1.5484993475424098
ecg0606	110	24	6	0.334105429482569	114	55204	4	0.9069160504567203	12.248368856024358	15	51132	4	0.9069160504567203	1.5937364071335363
ecg0606	110	24	7	0.3128971417511981	82	54260	6	0.9125706829056112	8.759460635058721	17	51520	4	0.9125706829056112	1.6433231839930404
ecg0606	110	24	8	0.30403126458477703	25	52484	3	0.6715963462374945	2.3684210526315788	12	51880	2	0.6715963462374945	1.06394084384515
ecg0606	110	24	9	0.2848165284143684	25	52268	3	0.8273162244454111	2.514571552849065	15	51788	3	0.8273162244454111	1.4523705959112658
ecg0606	110	24	10	0.27108300022267834	27	52572	4	0.7150935189212702	2.6080904741191824	14	51968	2	0.7150935189212702	1.2553284036537624
ecg0606	110	24	12	0.255717356315305	6	52360	2	0.42061765985210964	0.4828186167899087	6	52360	2	0.42061765985210964	0.4828186167899087
ecg0606	110	26	2	0.6087899697232658	213	44310	12	0.9830361026533275	31.25358851674641	9	36738	8	0.9830361026533275	1.8986515876468029
ecg0606	110	26	3	0.4814555592828539	164	47186	14	0.948238364506307	25.97433666811657	8	41208	11	0.948238364506307	1.5811222270552414
ecg0606	110	26	4	0.3993039957482166	168	57640	6	0.9351892127011744	19.90474119182253	13	50988	6	0.9351892127011744	1.595911265767725
ecg0606	110	26	5	0.3622037365673687	97	58452	6	0.9382340147890387	10.45367551109178	14	54620	6	0.9382340147890387	1.4967377120487169
ecg0606	110	26	6	0.3259242693083148	109	59454	5	0.9208351457155285	11.344062635928665	15	55270	5	0.9208351457155285	1.498477598956068
ecg0606	110	26	7	0.30494684413498646	81	58908	4	0.9008264462809917	8.424532405393649	16	55924	3	0.9008264462809917	1.5493692909960852
ecg0606	110	26	8	0.2962346379729288	30	56656	3	0.7607655502392344	2.900391474554154	17	55980	3	0.7607655502392344	1.5967812092214007
ecg0606	110	26	9	0.2769321621029872	36	57106	3	0.7712048716833406	3.5280556763810353	16	56132	3	0.7712048716833406	1.5458895171813831
ecg0606	110	26	10	0.2632672087709338	15	56652	4	0.6524575902566333	1.4989125706829056	10	56392	3	0.6524575902566333	0.9195302305350153
ecg0606	110	26	12	0.2477459147213001	10	56832	2	0.41365811222270554	0.8690735102218355	7	56676	2	0.41365811222270554	0.5793823401478904
ecg0606	110	28	2	0.6021330293700491	225	52892	12	0.9860809047411918	35.047411918225315	8	44340	11	0.9860809047411918	1.8960417572857764
ecg0606	110	28	3	0.47544987979580217	184	54492	13	0.9486733362331449	27.92996955197912	9	47332	13	0.9486733362331449	1.9673771204871684
ecg0606	110	28	4	0.3928754560016949	127	61372	5	0.9360591561548499	14.538494997825142	13	55708	5	0.9360591561548499	1.551544149630274
ecg0606	110	28	5	0.35569838384144853	83	62240	5	0.898651587646803	8.806002609830362	15	58696	3	0.898651587646803	1.4519356241844281
ecg0606	110	28	6	0.31921357444085363	78	62600	4	0.9025663331883428	8.08133971291866	17	59568	4	0.9025663331883428	1.8360156589821661
ecg0606	110	28	7	0.29845776826359177	62	62288	4	0.8812527185732927	6.435406698564593	17	60056	4	0.8812527185732927	1.6441931274467159
ecg0606	110	28	8	0.29012971071920834	17	60480	3	0.5637233579817312	1.6898651587646802	14	60312	3	0.5637233579817312	1.3518921270117443
ecg0606	110	28	9	0.2707645535818973	7	61004	2	0.4580252283601566	0.5793823401478904	7	61004	2	0.4580252283601566	0.5793823401478904
ecg0606	110	28	10	0.2570870522949388	10	61068	2	0.5619834710743802	0.8699434536755111	8	60956	2	0.5619834710743802	0.6768160069595476
ecg0606	110	28	12	0.24120414715883678	8	61088	2	0.38712483688560245	0.6759460635058722	7	61032	2	0.38712483688560245	0.5793823401478904
ecg0606	110	30	2	0.5960725401707683	233	58644	9	0.9834710743801653	32.247933884297524	10	48826	9	0.9834710743801653	1.647672901261418
ecg0606	110	30	3	0.4696047294786868	170	58656	14	0.9491083079599826	25.902566333188343	10	51448	14	0.9491083079599826	1.800782949108308
ecg0606	110	30	4	0.38698255869156123	147	68786	5	0.9491083079599826	16.571987820791648	13	61864	5	0.9491083079599826	1.5006524575902567
ecg0606	110	30	5	0.3493489552729852	71	66606	5	0.9247498912570683	7.8351457155284905	14	63420	5	0.9247498912570683	1.4515006524575902
ecg0606	110	30	6	0.313372810285009	70	67630	4	0.8964767290126142	7.1561548499347545	14	64530	4	0.8964767290126142	1.448455850369726
ecg0606	110	30	7	0.29248909645425186	51	66550	3	0.8421052631578947	4.935189212701174	15	64676	3	0.8421052631578947	1.4001739886907352
ecg0606	110	30	8	0.2844279590906859	13	65344	2	0.5193562418442801	1.1587646802957807	9	65104	2	0.5193562418442801	0.7725097868638539
ecg0606	110	30	9	0.2650749420831232	12	65322	2	0.4619399739016964	1.062200956937799	10	65202	2	0.4619399739016964	0.8690735102218355
ecg0606	110	30	10	0.25111363585240515	3	65596	2	0.19312744671596346	0.19312744671596346	3	65596	2	0.19312744671596346	0.19312744671596346
ecg0606	110	30	12	0.23516593534438268	4	65544	2	0.20182688125271858	0.2896911700739452	4	65544	2	0.20182688125271858	0.2896911700739452
ecg0606	120	2	2	1.1899824737249824	7	126	37	0.9599826011309265	6.88560243584167	2	90	18	0.9599826011309265	1.558938668986516
ecg0606	120	2	3	0.7452222956654474	1	10	-2147483648	0.0	0.0	1	10	-2147483648	0.0	0.0
ecg0606	120	2	4	0.8373755249438846	7	126	37	0.9599826011309265	6.88560243584167	2	90	18	0.9599826011309265	1.558938668986516
ecg0606	120	2	5	0.7369782736534483	6	96	17	0.9782514136581122	4.10656807307525	3	76	8	0.9782514136581122	1.5824271422357548
